2173
2143
2104
2075
2054
2034
2021
2018
2037
2076
2129
2194
2256
2298
2316
2304
2260
2205
2152
2106
2060
2008
1964
1946
1956
1989
2022
2046
2054
2051
2038
2023
2001
1980
1963
1956
1967
2000
2049
2091
2118
2125
2122
2117
2120
2126
2136
2145
2152
2160
2169
2176
2173
2152
2124
2089
2050
2013
1984
1967
1963
1967
1965
1959
1954
1951
1957
1974
2003
2039
2077
2112
2144
2170
2192
2212
2227
2228
2208
2169
2123
2070
2004
1931
1857
1796
1752
1731
1727
1740
1774
1828
1896
1966
2026
2070
2094
2102
2109
2110
2102
2087
2066
2038
2013
2004
2015
2037
2064
2084
2098
2109
2123
2137
2146
2145
2130
2103
2075
2046
2026
2008
1994
1976
1958
1943
1935
1934
1939
1943
1948
1951
1952
1960
1983
2009
2036
2064
2089
2109
2128
2137
2134
2114
2090
2064
2042
2026
2009
1991
1976
1966
1963
1975
2003
2040
2077
2101
2115
2108
2084
2044
2006
1971
1941
1917
1903
1893
1889
1901
1928
1971
2023
2073
2100
2103
2093
2081
2082
2095
2127
2168
2208
2248
2282
2304
2316
2320
2319
2314
2311
2308
2297
2285
2272
2254
2232
2208
2187
2165
2150
2136
2124
2113
2096
2076
2052
2025
2003
1978
1960
1951
1955
1963
1974
2000
2031
2067
2091
2098
2089
2070
2058
2056
2064
2074
2078
2075
2064
2046
2021
1987
1953
1926
1910
1903
1906
1918
1934
1957
1990
2035
2089
2132
2157
2162
2150
2133
2118
2106
2093
2077
2060
2036
2016
2003
1997
2001
2016
2035
2053
2059
2058
2050
2039
2029
2017
2000
1980
1956
1927
1905
1885
1863
1852
1845
1847
1856
1876
1907
1946
1980
2010
2038
2061
2080
2102
2134
2173
2210
2260
2330
2424
2534
2645
2751
2836
2893
2909
2890
2840
2755
2642
2504
2352
2188
2013
1841
1678
1529
1396
1286
1196
1124
1066
1021
997
991
992
992
992
995
1002
1030
1077
1134
1206
1293
1395
1508
1619
1727
1830
1926
2016
2095
2164
2217
2252
2265
2260
2250
2236
2215
2179
2130
2070
2001
1942
1902
1892
1905
1938
1983
2031
2077
2108
2126
2126
2118
2104
2084
2054
2014
1966
1916
1865
1815
1773
1740
1717
1704
1698
1685
1660
1621
1574
1530
1495
1475
1472
1486
1506
1533
1568
1611
1666
1732
1807
1882
1948
1999
2042
2091
2151
2218
2283
2338
2373
2390
2388
2363
2315
2248
2171
2089
2003
1922
1844
1766
1694
1635
1593
1576
1582
1600
1626
1660
1702
1745
1783
1817
1845
1854
1857
1864
1877
1891
1917
1945
1967
1982
1990
1989
1987
1976
1961
1944
1926
1898
1858
1805
1740
1673
1601
1534
1487
1470
1480
1489
1480
1455
1430
1403
1394
1410
1449
1505
1564
1617
1666
1724
1787
1860
1933
2011
2093
2169
2228
2254
2248
2225
2202
2187
2177
2172
2176
2177
2188
2214
2253
2296
2339
2372
2382
2376
2350
2307
2246
2183
2133
2096
2077
2074
2074
2073
2070
2081
2103
2132
2163
2187
2194
2184
2164
2134
2096
2047
1998
1961
1940
1935
1942
1961
2001
2068
2156
2261
2380
2506
2634
2758
2857
2916
2938
2933
2908
2871
2824
2767
2714
2682
2665
2661
2671
2684
2692
2702
2720
2740
2770
2815
2876
2928
2952
2940
2912
2884
2856
2820
2770
2719
2663
2598
2530
2465
2412
2372
2345
2333
2337
2352
2369
2380
2379
2379
2384
2409
2453
2518
2597
2677
2756
2818
2859
2877
2884
2875
2861
2846
2834
2819
2802
2787
2772
2748
2725
2714
2716
2725
2736
2743
2734
2698
2631
2550
2478
2420
2378
2343
2318
2306
2304
2307
2315
2320
2321
2318
2312
2305
2299
2294
2290
2280
2272
2262
2256
2261
2273
2287
2301
2317
2324
2309
2268
2210
2134
2056
1988
1940
1907
1878
1848
1805
1746
1682
1610
1533
1460
1420
1423
1463
1525
1608
1705
1800
1884
1952
1997
2014
2011
1993
1968
1936
1898
1868
1843
1830
1812
1785
1755
1724
1688
1650
1613
1580
1556
1541
1546
1570
1607
1661
1719
1772
1809
1824
1818
1789
1740
1678
1618
1581
1575
1586
1607
1646
1706
1775
1847
1911
1962
1988
1991
1968
1922
1869
1830
1825
1849
1880
1912
1949
1986
2004
1999
1980
1962
1953
1966
1991
2011
2018
2020
2008
1981
1941
1895
1851
1802
1740
1654
1563
1468
1396
1363
1369
1409
1463
1514
1557
1598
1641
1676
1691
1687
1686
1692
1718
1773
1850
1939
2019
2080
2112
2102
2052
1977
1905
1853
1827
1821
1835
1868
1921
1978
2028
2071
2108
2131
2131
2108
2069
2021
1975
1932
1896
1868
1850
1835
1821
1810
1793
1772
1751
1740
1748
1775
1803
1796
1741
1659
1583
1542
1534
1558
1604
1662
1738
1828
1941
2059
2163
2242
2283
2289
2292
2306
2329
2360
2377
2362
2316
2229
2115
1997
1902
1826
1757
1700
1655
1630
1625
1645
1680
1727
1775
1824
1873
1908
1924
1917
1887
1845
1809
1780
1767
1767
1790
1830
1870
1909
1933
1939
1922
1874
1808
1735
1638
1536
1450
1393
1375
1402
1463
1533
1617
1705
1783
1849
1892
1911
1916
1916
1918
1920
1919
1907
1882
1848
1826
1809
1794
1789
1805
1850
1896
1931
1950
1961
1963
1961
1963
1970
1976
1969
1947
1919
1900
1902
1927
1974
2032
2095
2144
2164
2153
2108
2027
1934
1830
1765
1742
1764
1829
1929
2041
2157
2264
2351
2424
2469
2482
2468
2425
2367
2308
2248
2176
2092
2008
1938
1871
1812
1763
1734
1734
1752
1774
1794
1818
1851
1891
1922
1938
1939
1931
1912
1895
1879
1860
1837
1811
1781
1753
1737
1756
1806
1872
1952
2027
2073
2067
2007
1924
1844
1781
1740
1720
1727
1757
1798
1836
1881
1919
1954
1985
2010
2021
2017
1988
1936
1874
1809
1758
1731
1732
1744
1763
1781
1794
1802
1808
1820
1842
1864
1873
1873
1869
1869
1868
1874
1898
1948
2022
2103
2176
2238
2286
2312
2312
2283
2241
2208
2192
2191
2203
2215
2206
2182
2149
2110
2072
2043
2030
2033
2044
2063
2090
2124
2158
2186
2202
2196
2161
2109
2048
1992
1951
1923
1917
1938
1957
1982
2010
2035
2056
2065
2054
2027
1981
1921
1870
1833
1805
1790
1790
1803
1816
1823
1820
1810
1784
1746
1698
1646
1605
1576
1564
1562
1564
1569
1589
1626
1686
1766
1861
1949
2008
2032
2039
2052
2080
2119
2159
2183
2181
2161
2138
2117
2098
2082
2066
2042
2010
1976
1943
1924
1930
1956
1989
2020
2050
2068
2062
2040
2014
1974
1924
1882
1854
1839
1842
1868
1902
1926
1928
1913
1902
1902
1912
1925
1940
1955
1962
1965
1962
1966
1970
1976
1982
1988
1989
1983
1980
1980
1990
2008
2041
2088
2137
2180
2205
2224
2236
2237
2236
2244
2269
2310
2344
2359
2353
2330
2306
2296
2296
2295
2283
2273
2272
2280
2294
2308
2311
2307
2302
2304
2305
2298
2289
2283
2284
2294
2314
2347
2383
2417
2444
2458
2461
2452
2441
2434
2440
2444
2450
2452
2443
2421
2395
2382
2374
2365
2343
2315
2290
2268
2246
2228
2213
2204
2202
2210
2220
2235
2248
2247
2233
2211
2185
2157
2116
2065
2011
1965
1935
1917
1907
1909
1922
1943
1969
2000
2042
2090
2128
2158
2176
2180
2176
2160
2131
2102
2074
2056
2047
2049
2057
2065
2082
2118
2169
2227
2273
2307
2330
2352
2374
2389
2388
2370
2336
2286
2230
2170
2118
2080
2056
2027
1989
1938
1883
1837
1802
1775
1759
1750
1750
1768
1820
1913
2042
2186
2312
2400
2448
2458
2454
2446
2451
2472
2513
2574
2646
2714
2774
2824
2860
2875
2876
2869
2860
2846
2829
2814
2799
2774
2738
2686
2613
2522
2420
2320
2224
2142
2072
2014
1975
1951
1938
1936
1947
1971
2011
2056
2105
2156
2206
2261
2331
2420
2547
2734
2951
3157
3307
3372
3362
3293
3172
3005
2805
2590
2379
2186
2013
1868
1758
1676
1621
1585
1554
1525
1497
1466
1423
1376
1334
1306
1306
1340
1416
1516
1623
1718
1789
1835
1859
1861
1843
1818
1803
1813
1851
1913
1990
2076
2152
2215
2267
2305
2326
2325
2296
2256
2213
2179
2150
2120
2092
2070
2056
2054
2065
2089
2128
2155
2167
2157
2129
2086
2036
1978
1922
1868
1819
1779
1745
1720
1707
1711
1739
1795
1862
1934
2012
2098
2184
2262
2328
2374
2407
2436
2457
2460
2438
2389
2325
2258
2199
2147
2100
2053
2008
1976
1956
1946
1952
1973
2002
2036
2075
2121
2172
2220
2258
2279
2280
2263
2233
2202
2176
2160
2155
2161
2179
2202
2227
2254
2274
2282
2270
2242
2193
2136
2076
2008
1935
1861
1796
1739
1694
1673
1686
1733
1798
1876
1954
2027
2100
2167
2223
2265
2294
2312
2308
2291
2278
2277
2282
2291
2302
2309
2310
2320
2336
2359
2382
2402
2423
2448
2468
2482
2484
2472
2444
2394
2323
2246
2182
2144
2131
2140
2177
2252
2366
2506
2638
2728
2765
2753
2716
2659
2592
2539
2517
2532
2585
2656
2723
2765
2773
2750
2712
2658
2597
2546
2508
2487
2481
2482
2490
2508
2526
2546
2566
2582
2592
2594
2587
2572
2560
2553
2561
2575
2593
2615
2633
2650
2667
2682
2689
2682
2671
2664
2664
2674
2692
2719
2754
2791
2816
2829
2842
2857
2870
2880
2888
2898
2911
2923
2935
2946
2952
2946
2926
2898
2868
2834
2799
2764
2723
2669
2604
2533
2461
2400
2364
2354
2374
2414
2464
2520
2586
2658
2727
2788
2830
2852
2856
2836
2782
2698
2594
2493
2402
2326
2271
2237
2221
2216
2215
2220
2220
2214
2208
2206
2214
2228
2242
2252
2241
2210
2165
2112
2048
1991
1946
1919
1899
1887
1881
1877
1884
1919
1974
2035
2088
2130
2162
2182
2184
2170
2144
2109
2069
2029
1993
1967
1954
1951
1961
1981
2013
2052
2090
2123
2132
2114
2076
2024
1968
1898
1826
1766
1734
1730
1745
1770
1799
1842
1908
1978
2031
2072
2100
2112
2112
2109
2098
2084
2070
2056
2040
2023
2006
1988
1965
1940
1916
1901
1894
1899
1911
1922
1928
1923
1914
1903
1897
1886
1868
1841
1804
1761
1724
1693
1675
1669
1672
1680
1695
1719
1748
1781
1809
1828
1835
1837
1835
1832
1828
1824
1818
1808
1794
1780
1768
1752
1743
1744
1762
1787
1822
1868
1924
1987
2050
2108
2164
2216
2256
2284
2290
2271
2236
2187
2128
2069
2007
1947
1894
1857
1837
1830
1837
1858
1886
1917
1949
1978
2004
2021
2029
2026
2014
1999
1986
1977
1985
2008
2040
2074
2108
2132
2144
2143
2131
2112
2083
2044
1996
1946
1902
1866
1844
1835
1841
1854
1874
1899
1926
1949
1973
1999
2029
2064
2091
2121
2150
2179
2198
2209
2212
2212
2206
2204
2201
2196
2188
2183
2181
2179
2176
2173
2172
2170
2158
2136
2109
2080
2050
2020
1993
1966
1942
1919
1898
1882
1874
1869
1861
1847
1826
1804
1780
1758
1742
1733
1733
1737
1745
1759
1780
1802
1828
1861
1902
1947
1987
2014
2026
2030
2028
2025
2020
2014
2005
1992
1975
1948
1901
1836
1775
1724
1684
1652
1630
1624
1631
1647
1666
1688
1711
1730
1751
1769
1787
1802
1808
1808
1802
1788
1767
1742
1717
1691
1666
1645
1630
1624
1628
1640
1664
1694
1735
1784
1828
1863
1887
1899
1899
1883
1853
1818
1782
1748
1727
1726
1742
1761
1770
1772
1766
1756
1747
1744
1748
1756
1762
1768
1775
1780
1783
1784
1784
1776
1761
1742
1717
1689
1668
1658
1656
1657
1657
1661
1676
1696
1722
1749
1779
1813
1842
1864
1874
1868
1845
1809
1762
1709
1654
1608
1581
1577
1605
1672
1771
1879
1975
2053
2103
2130
2136
2128
2113
2089
2060
2023
1978
1929
1880
1836
1801
1776
1761
1754
1755
1761
1768
1777
1783
1790
1801
1811
1821
1831
1839
1847
1856
1866
1876
1891
1906
1926
1943
1956
1963
1963
1957
1947
1938
1929
1918
1908
1896
1881
1865
1850
1839
1833
1831
1832
1832
1837
1845
1859
1871
1882
1887
1891
1892
1894
1893
1892
1892
1888
1886
1878
1865
1846
1829
1812
1797
1783
1772
1763
1752
1744
1734
1722
1705
1693
1686
1684
1690
1707
1727
1747
1764
1780
1802
1828
1855
1886
1917
1940
1954
1959
1956
1945
1933
1927
1935
1949
1972
1997
2018
2028
2031
2027
2023
2012
2002
1992
1982
1971
1964
1956
1955
1956
1962
1973
1986
2000
2017
2031
2044
2056
2064
2070
2076
2080
2083
2088
2093
2098
2101
2102
2102
2100
2096
2090
2086
2080
2070
2061
2055
2052
2052
2053
2057
2060
2059
2054
2044
2042
2041
2043
2043
2045
2044
2047
2052
2055
2060
2066
2074
2078
2078
2072
2064
2054
2038
2022
2007
1992
1980
1972
1964
1954
1939
1917
1892
1866
1845
1833
1827
1828
1833
1844
1855
1871
1891
1914
1940
1971
1999
2017
2025
2024
2017
2004
1990
1976
1963
1947
1935
1925
1916
1914
1917
1925
1929
1952
1964
1972
1975
1977
1976
1973
1966
1957
1947
1939
1932
1929
1926
1926
1923
1919
1919
1921
1928
1936
1947
1961
1980
2002
2031
2065
2104
2146
2189
2234
2276
2313
2344
2365
2380
2389
2393
2390
2380
2364
2338
2309
2276
2241
2201
2158
2105
2044
1970
1884
1789
1688
1579
1469
1364
1268
1189
1130
1093
1081
1090
1118
1166
1230
1301
1376
1448
1522
1595
1670
1741
1807
1869
1925
1971
2008
2033
2047
2055
2058
2058
2052
2042
2030
2019
2004
1986
1968
1952
1935
1922
1914
1911
1912
1921
1929
1942
1953
1966
1982
1994
2002
2010
2018
2023
2028
2034
2035
2035
2032
2028
2023
2021
2019
2020
2025
2033
2041
2050
2056
2060
2062
2064
2066
2068
2068
2067
2065
2065
2065
2062
2062
2059
2056
2053
2050
2046
2043
2040
2037
2031
2032
2033
2034
2036
2040
2035
2031
2027
2024
2019
2015
2012
2010
2010
2011
2009
2007
2000
1996
1990
1985
1977
1967
1958
1949
1940
1929
1919
1914
1909
1911
1916
1923
1928
1933
1938
1941
1944
1946
1945
1944
1941
1935
1930
1928
1926
1928
1929
1929
1932
1941
1951
1962
1973
1983
1997
2015
2038
2063
2087
2105
2122
2135
2150
2164
2180
2193
2202
2208
2210
2209
2204
2197
2190
2181
2174
2168
2160
2151
2142
2138
2135
2132
2131
2131
2133
2137
2140
2141
2144
2145
2148
2154
2158
2160
2159
2158
2157
2156
2159
2169
2180
2189
2194
2196
2192
2192
2196
2204
2212
2224
2232
2238
2237
2231
2227
2224
2226
2231
2238
2249
2262
2274
2284
2290
2291
2285
2276
2266
2258
2253
2247
2243
2241
2240
2244
2251
2262
2280
2305
2338
2374
2413
2455
2494
2532
2567
2597
2624
2642
2658
2668
2676
2683
2685
2688
2684
2679
2674
2670
2668
2671
2674
2676
2674
2669
2662
2654
2650
2647
2646
2645
2642
2637
2629
2621
2614
2606
2602
2599
2599
2599
2598
2597
2593
2592
2588
2582
2572
2561
2545
2523
2500
2473
2444
2415
2390
2368
2348
2327
2306
2285
2266
2247
2228
2208
2192
2172
2153
2134
2121
2109
2102
2100
2092
2082
2072
2060
2050
2039
2030
2018
2005
1993
1981
1970
1957
1945
1937
1929
1924
1921
1921
1926
1930
1936
1938
1935
1930
1927
1926
1924
1924
1924
1919
1914
1907
1900
1894
1890
1884
1876
1867
1858
1849
1852
1857
1866
1879
1890
1899
1906
1911
1921
1928
1935
1939
1942
1946
1950
1960
1971
1980
1983
1985
1983
1977
1966
1951
1934
1918
1903
1890
1880
1874
1872
1869
1866
1865
1863
1860
1858
1856
1856
1859
1860
1863
1865
1868
1871
1876
1882
1887
1892
1892
1886
1883
1881
1881
1882
1884
1889
1893
1893
1893
1892
1889
1887
1884
1879
1875
1874
1876
1883
1894
1908
1918
1922
1922
1916
1909
1899
1889
1880
1871
1863
1859
1856
1856
1856
1860
1868
1878
1895
1910
1925
1933
1940
1946
1950
1956
1958
1959
1959
1957
1956
1950
1944
1940
1933
1926
1918
1911
1903
1893
1882
1871
1863
1860
1862
1869
1878
1890
1901
1912
1919
1921
1924
1926
1926
1919
1911
1900
1890
1880
1877
1877
1880
1893
1911
1931
1949
1964
1972
1973
1969
1960
1949
1938
1928
1915
1906
1900
1897
1902
1908
1916
1927
1938
1947
1952
1950
1945
1938
1931
1924
1916
1911
1907
1904
1904
1906
1906
1906
1904
1899
1895
1890
1885
1880
1878
1877
1876
1870
1866
1862
1862
1864
1870
1877
1883
1889
1896
1897
1899
1898
1896
1894
1894
1892
1890
1885
1880
1874
1871
1871
1872
1870
1871
1871
1869
1870
1870
1872
1874
1876
1877
1876
1875
1871
1868
1863
1860
1859
1859
1860
1860
1861
1863
1864
1868
1868
1868
1869
1869
1868
1866
1866
1868
1869
1872
1874
1875
1876
1875
1875
1874
1872
1872
1874
1877
1881
1886
1887
1888
1882
1879
1874
1869
1863
1860
1853
1848
1843
1840
1840
1843
1845
1848
1854
1865
1874
1885
1898
1910
1916
1917
1912
1904
1894
1885
1875
1867
1862
1858
1854
1853
1852
1854
1853
1853
1856
1858
1861
1862
1866
1867
1867
1870
1872
1878
1883
1887
1889
1890
1893
1893
1892
1886
1882
1879
1877
1877
1876
1875
1874
1874
1873
1875
1875
1876
1876
1879
1883
1887
1891
1897
1901
1904
1904
1902
1902
1903
1904
1910
1915
1924
1931
1942
1950
1957
1964
1969
1975
1981
1986
1992
1995
1997
1994
1988
1978
1967
1959
1950
1943
1950
1946
1955
1963
1970
1974
1980
1986
1991
1995
1999
2001
2002
2005
2007
2010
2014
2017
2019
2018
2018
2013
2007
2000
1992
1985
1981
1982
1985
1989
1996
2003
2010
2015
2018
2019
2022
2026
2028
2033
2037
2040
2041
2042
2040
2040
2042
2045
2049
2054
2056
2057
2060
2061
2062
2060
2059
2058
2059
2059
2059
2062
2064
2064
2062
2065
2073
2086
2100
2116
2134
2151
2170
2188
2204
2220
2237
2250
2260
2265
2267
2266
2268
2269
2268
2265
2254
2241
2225
2208
2193
2180
2165
2152
2138
2127
2117
2112
2107
2098
2096
2089
2091
2093
2096
2096
2091
2084
2078
2072
2066
2058
2053
2050
2051
2054
2059
2062
2064
2064
2061
2056
2052
2048
2041
2032
2020
2006
1993
1976
1962
1947
1940
1937
1938
1937
1938
1943
1946
1951
1956
1962
1968
1971
1974
1977
1977
1979
1981
1983
1989
1993
2001
2006
2009
2009
2006
2004
2001
1996
1991
1986
1983
1977
1975
1972
1972
1975
1978
1986
1990
1995
1997
1993
1989
1982
1974
1969
1966
1968
1972
1980
1990
2004
2026
2053
2085
2123
2162
2205
2249
2292
2342
2386
2426
2460
2486
2506
2516
2525
2527
2520
2504
2478
2440
2390
2331
2264
2194
2116
2028
1934
1836
1732
1628
1523
1428
1344
1282
1240
1227
1234
1264
1307
1362
1425
1490
1560
1627
1694
1761
1826
1887
1939
1986
2023
2055
2076
2089
2093
2090
2080
2066
2044
2023
1999
1980
1963
1947
1935
1926
1919
1915
1914
1915
1919
1927
1937
1946
1955
1962
1967
1970
1972
1975
1978
1978
1980
1980
1980
1982
1983
1983
1978
1978
1977
1979
1982
1983
1988
1992
1997
2001
2002
2007
2009
2011
2012
2015
2020
2023
2024
2023
2017
2012
2005
2000
1997
1993
1990
1988
1987
1978
1986
1988
1989
1993
1996
1999
2007
2017
2026
2036
2043
2050
2056
2061
2068
2074
2078
2080
2081
2078
2076
2072
2068
2061
2053
2043
2039
2037
2039
2044
2052
2061
2070
2080
2088
2098
2106
2114
2119
2121
2121
2122
2122
2125
2125
2127
2129
2130
2130
2128
2124
2121
2116
2113
2110
2112
2116
2121
2129
2136
2143
2147
2149
2151
2149
2146
2143
2141
2143
2146
2152
2161
2174
2190
2208
2222
2229
2230
2225
2218
2208
2198
2189
2182
2179
2176
2176
2176
2179
2180
2183
2188
2192
2198
2202
2208
2213
2220
2225
2229
2235
2242
2247
2252
2260
2268
2279
2290
2298
2306
2314
2325
2335
2343
2348
2355
2359
2367
2374
2382
2391
2401
2414
2426
2441
2452
2461
2468
2472
2474
2475
2474
2475
2475
2476
2481
2485
2489
2495
2504
2511
2521
2532
2544
2553
2562
2571
2580
2589
2598
2607
2615
2622
2630
2638
2645
2653
2661
2667
2673
2678
2686
2696
2706
2712
2712
2704
2690
2673
2660
2650
2646
2645
2645
2650
2656
2664
2673
2678
2684
2685
2688
2688
2688
2686
2683
2675
2666
2654
2642
2628
2616
2602
2586
2573
2558
2547
2535
2521
2506
2488
2465
2441
2418
2396
2376
2360
2344
2330
2314
2297
2280
2264
2246
2231
2213
2196
2182
2165
2150
2135
2120
2108
2100
2094
2088
2082
2069
2052
2036
2021
2007
1995
1987
1979
1971
1962
1952
1942
1936
1928
1922
1917
1911
1907
1904
1901
1901
1900
1902
1901
1903
1904
1902
1898
1891
1888
1885
1887
1889
1886
1882
1878
1874
1870
1865
1861
1859
1859
1863
1870
1876
1887
1895
1902
1906
1908
1912
1912
1908
1901
1891
1881
1873
1868
1863
1861
1863
1863
1867
1872
1879
1886
1893
1897
1903
1909
1913
1915
1915
1913
1908
1903
1900
1898
1897
1897
1900
1901
1902
1900
1897
1894
1892
1890
1888
1887
1885
1885
1885
1883
1884
1885
1887
1889
1890
1891
1893
1894
1897
1900
1904
1908
1907
1900
1893
1885
1880
1878
1878
1879
1881
1882
1882
1885
1891
1895
1902
1909
1912
1916
1922
1928
1932
1934
1934
1932
1927
1919
1912
1905
1897
1894
1891
1889
1887
1889
1894
1901
1908
1913
1917
1918
1918
1916
1914
1913
1913
1912
1913
1912
1912
1911
1912
1911
1908
1906
1904
1903
1901
1898
1896
1894
1893
1894
1893
1896
1898
1900
1901
1902
1905
1908
1915
1921
1924
1927
1930
1930
1931
1931
1932
1936
1938
1937
1933
1931
1928
1926
1923
1922
1920
1921
1922
1925
1928
1931
1935
1941
1944
1943
1944
1944
1943
1940
1936
1932
1925
1918
1915
1910
1910
1909
1908
1908
1910
1914
1919
1924
1929
1934
1942
1952
1962
1970
1977
1979
1977
1970
1958
1944
1930
1918
1906
1897
1890
1887
1885
1886
1890
1894
1897
1899
1904
1907
1914
1917
1923
1926
1929
1926
1923
1921
1919
1916
1914
1914
1915
1916
1921
1924
1927
1928
1930
1932
1933
1934
1938
1940
1942
1940
1939
1938
1936
1933
1932
1933
1935
1937
1940
1942
1945
1946
1945
1942
1940
1939
1939
1936
1934
1930
1929
1930
1931
1934
1934
1936
1938
1941
1943
1946
1948
1950
1952
1951
1951
1950
1950
1949
1950
1949
1950
1952
1953
1955
1957
1959
1960
1960
1960
1958
1957
1957
1957
1958
1958
1960
1960
1955
1947
1937
1929
1924
1922
1925
1926
1930
1936
1940
1946
1950
1958
1965
1970
1975
1979
1983
1983
1982
1978
1972
1965
1957
1951
1948
1949
1949
1950
1950
1951
1951
1952
1954
1955
1956
1957
1957
1957
1958
1959
1961
1962
1965
1965
1967
1969
1970
1968
1966
1964
1961
1960
1960
1961
1961
1963
1965
1968
1972
1976
1982
1987
1990
1994
1995
1996
1997
1999
2001
2003
2004
2007
2008
2011
2015
2017
2017
2012
2009
2005
2000
1996
1991
1988
1986
1985
1983
1985
1985
1986
1987
1992
1997
2000
2000
2001
2002
2004
2008
2010
2011
2011
2011
2012
2010
2008
2004
2000
1999
1997
1996
1996
1997
1996
1996
1997
1999
1998
1999
2000
1999
2000
2003
2005
2004
2002
2000
1999
1999
1997
1997
1998
2000
2002
2004
2008
2011
2014
2015
2013
2011
2010
2007
2003
1998
1998
1999
2001
2005
2009
2015
2023
2027
2035
2040
2046
2052
2056
2056
2056
2055
2054
2054
2056
2056
2061
2067
2074
2082
2088
2093
2096
2097
2098
2098
2097
2097
2099
2102
2107
2116
2130
2149
2167
2186
2210
2235
2256
2274
2286
2292
2293
2288
2281
2272
2262
2249
2232
2219
2205
2192
2178
2167
2156
2145
2137
2129
2125
2126
2127
2129
2132
2134
2135
2134
2134
2133
2130
2128
2125
2123
2120
2116
2113
2106
2104
2102
2102
2102
2100
2102
2100
2098
2093
2088
2084
2076
2068
2057
2045
2035
2025
2016
2006
1994
1983
1973
1963
1954
1951
1950
1951
1956
1961
1968
1974
1982
1990
1999
2005
2006
2007
2005
2003
1999
1993
1988
1984
1978
1974
1973
1971
1969
1970
1971
1973
1974
1975
1973
1973
1970
1968
1966
1965
1964
1965
1971
1977
1982
1991
2000
2010
2019
2030
2044
2063
2080
2105
2138
2178
2221
2272
2325
2376
2421
2463
2496
2524
2543
2555
2564
2569
2565
2550
2520
2479
2424
2362
2290
2210
2124
2035
1944
1853
1763
1671
1574
1479
1394
1319
1262
1228
1217
1226
1248
1287
1333
1391
1455
1526
1600
1676
1751
1821
1885
1940
1988
2026
2053
2069
2075
2074
2066
2056
2041
2024
2005
1991
1977
1967
1958
1950
1946
1944
1945
1947
1949
1952
1956
1957
1958
1960
1962
1964
1966
1966
1967
1969
1972
1973
1975
1974
1975
1974
1976
1975
1977
1980
1983
1990
1996
2003
2007
2007
2008
2010
2010
2009
2006
2003
1999
1996
1994
1994
1993
1994
1996
1997
1998
2002
2003
2006
2009
2010
2009
2011
2010
2010
2007
2005
2005
2006
2010
2015
2021
2028
2034
2039
2042
2043
2045
2049
2050
2052
2052
2051
2051
2049
2045
2042
2038
2037
2038
2042
2044
2050
2054
2061
2066
2070
2073
2076
2079
2080
2082
2085
2087
2092
2096
2100
2105
2109
2114
2116
2112
2105
2097
2094
2092
2091
2089
2091
2090
2092
2096
2102
2107
2112
2120
2124
2130
2136
2140
2144
2146
2150
2156
2161
2166
2166
2166
2168
2165
2163
2161
2160
2161
2166
2172
2178
2182
2184
2185
2186
2187
2186
2188
2191
2196
2200
2207
2212
2217
2227
2235
2245
2254
2260
2266
2272
2276
2280
2283
2287
2289
2292
2296
2300
2306
2312
2318
2328
2336
2344
2354
2365
2378
2392
2405
2416
2426
2428
2431
2432
2435
2438
2440
2444
2448
2452
2456
2463
2469
2477
2487
2499
2513
2528
2542
2556
2570
2578
2583
2583
2578
2573
2572
2573
2576
2584
2592
2602
2611
2621
2631
2640
2648
2654
2661
2667
2671
2674
2676
2676
2674
2674
2676
2678
2682
2686
2693
2697
2700
2700
2699
2697
2696
2693
2688
2684
2676
2670
2662
2653
2642
2631
2618
2606
2596
2588
2582
2575
2564
2553
2542
2527
2509
2490
2470
2448
2426
2407
2387
2369
2350
2330
2312
2294
2278
2264
2249
2237
2221
2209
2192
2174
2154
2135
2118
2105
2092
2080
2070
2061
2053
2046
2041
2034
2030
2023
2015
2004
1992
1982
1973
1964
1958
1953
1947
1940
1930
1922
1914
1909
1903
1899
1896
1892
1891
1890
1890
1892
1890
1887
1884
1881
1877
1874
1871
1868
1866
1864
1861
1864
1865
1864
1864
1861
1857
1857
1854
1853
1853
1854
1854
1853
1852
1850
1847
1843
1840
1841
1845
1850
1856
1862
1868
1873
1875
1876
1872
1867
1862
1861
1858
1856
1854
1851
1852
1856
1861
1868
1870
1873
1875
1877
1878
1877
1876
1874
1874
1873
1872
1872
1872
1872
1873
1873
1875
1878
1882
1886
1889
1893
1895
1898
1900
1901
1903
1904
1902
1898
1891
1887
1883
1878
1877
1874
1874
1875
1875
1875
1874
1875
1875
1875
1876
1878
1882
1884
1886
1885
1884
1882
1877
1876
1877
1882
1888
1895
1903
1909
1914
1918
1916
1912
1908
1905
1903
1902
1903
1904
1908
1911
1912
1915
1918
1919
1919
1918
1915
1912
1908
1903
1899
1897
1895
1894
1894
1898
1902
1907
1912
1917
1922
1928
1933
1937
1937
1936
1931
1924
1919
1915
1913
1911
1910
1908
1908
1907
1908
1910
1912
1916
1921
1924
1926
1928
1926
1926
1923
1918
1911
1902
1892
1886
1883
1885
1889
1895
1901
1908
1914
1919
1926
1931
1938
1941
1944
1943
1943
1940
1937
1930
1925
1920
1917
1917
1913
1912
1913
1915
1918
1919
1918
1916
1912
1910
1911
1912
1915
1918
1923
1923
1923
1921
1919
1919
1918
1918
1918
1919
1921
1922
1922
1924
1924
1925
1924
1924
1924
1927
1928
1927
1924
1920
1916
1916
1916
1919
1922
1924
1926
1927
1928
1930
1932
1932
1930
1929
1929
1927
1925
1919
1913
1908
1903
1902
1902
1903
1906
1909
1912
1914
1918
1921
1925
1930
1936
1940
1945
1946
1946
1942
1938
1938
1937
1935
1933
1932
1934
1937
1942
1949
1957
1966
1974
1980
1980
1977
1970
1961
1953
1946
1941
1936
1935
1936
1937
1938
1940
1940
1941
1939
1938
1935
1933
1932
1934
1935
1933
1944
1950
1952
1955
1954
1953
1949
1947
1944
1944
1949
1954
1960
1964
1965
1965
1965
1963
1963
1962
1962
1957
1954
1948
1945
1940
1940
1941
1945
1949
1950
1951
1950
1951
1957
1962
1967
1971
1976
1981
1984
1985
1986
1986
1984
1983
1979
1976
1968
1961
1956
1955
1954
1957
1962
1966
1969
1973
1975
1977
1979
1980
1975
1970
1967
1966
1966
1965
1966
1967
1969
1973
1977
1981
1986
1988
1991
1994
1994
1992
1990
1985
1982
1976
1972
1969
1968
1969
1970
1970
1969
1967
1964
1960
1958
1956
1956
1953
1952
1953
1956
1959
1965
1968
1972
1974
1974
1976
1981
1985
1990
1995
2001
2005
2007
2005
2002
1996
1990
1984
1979
1975
1973
1973
1975
1978
1983
1989
1993
1997
1999
2000
2004
2007
2007
2006
2002
1997
1995
1994
1991
1988
1987
1987
1990
1994
1999
2001
2004
2002
2000
1999
1998
1998
2000
2001
2003
2005
2007
2007
2006
2004
2004
2004
2006
2006
2010
2009
2007
2006
2004
2002
2002
2001
2002
2005
2011
2019
2028
2036
2044
2052
2056
2058
2060
2058
2057
2056
2054
2057
2060
2065
2073
2080
2088
2096
2106
2114
2120
2122
2125
2123
2124
2119
2116
2112
2112
2120
2133
2153
2178
2199
2221
2241
2259
2276
2287
2297
2301
2301
2299
2296
2292
2287
2276
2262
2244
2225
2204
2185
2166
2149
2135
2125
2118
2112
2110
2110
2112
2116
2119
2121
2123
2122
2121
2120
2121
2120
2119
2118
2120
2122
2124
2125
2124
2120
2112
2104
2092
2080
2069
2058
2050
2038
2028
2019
2009
2001
1992
1986
1980
1977
1975
1976
1979
1981
1983
1983
1983
1983
1981
1979
1978
1977
1978
1978
1982
1986
1986
1987
1987
1986
1986
1986
1986
1985
1985
1985
1983
1982
1983
1982
1986
1983
1981
1975
1973
1976
1978
1979
1977
1974
1972
1969
1969
1969
1972
1979
1988
1998
2009
2023
2040
2060
2087
2124
2167
2218
2271
2326
2378
2427
2473
2511
2544
2568
2585
2593
2595
2590
2577
2552
2518
2471
2413
2350
2279
2199
2114
2020
1923
1824
1724
1620
1514
1412
1324
1253
1202
1176
1173
1188
1218
1261
1313
1373
1441
1516
1595
1677
1756
1830
1893
1946
1990
2021
2041
2054
2058
2058
2054
2042
2030
2015
2002
1989
1976
1966
1959
1956
1957
1962
1971
1980
1986
1990
1994
1997
2000
2005
2010
2014
2020
2024
2025
2026
2029
2032
2034
2037
2039
2039
2039
2037
2036
2034
2034
2033
2032
2033
2033
2034
2034
2035
2036
2040
2045
2049
2052
2056
2059
2058
2059
2054
2050
2049
2052
2056
2060
2063
2067
2069
2072
2073
2074
2075
2076
2081
2084
2087
2088
2088
2089
2086
2084
2084
2085
2085
2086
2089
2092
2096
2098
2096
2090
2083
2080
2082
2084
2086
2089
2093
2097
2100
2104
2108
2109
2112
2112
2112
2113
2113
2113
2112
2110
2110
2112
2112
2115
2120
2128
2132
2138
2141
2146
2150
2154
2156
2157
2157
2157
2156
2155
2152
2148
2145
2145
2144
2144
2145
2148
2153
2159
2162
2166
2167
2166
2167
2168
2173
2179
2183
2190
2198
2204
2212
2219
2226
2233
2237
2239
2246
2250
2252
2254
2255
2256
2260
2262
2262
2260
2259
2259
2260
2264
2265
2267
2271
2276
2284
2293
2304
2312
2320
2329
2338
2344
2353
2360
2369
2376
2384
2391
2396
2402
2406
2409
2411
2413
2413
2416
2419
2426
2434
2444
2457
2468
2478
2485
2489
2494
2500
2506
2512
2520
2528
2536
2544
2551
2560
2568
2577
2587
2596
2605
2615
2624
2630
2634
2638
2641
2646
2653
2660
2668
2674
2682
2690
2693
2696
2700
2704
2708
2710
2713
2714
2717
2720
2724
2728
2730
2732
2727
2720
2718
2712
2710
2708
2702
2697
2691
2684
2675
2666
2656
2647
2638
2628
2618
2609
2601
2592
2576
2554
2532
2508
2480
2455
2429
2406
2385
2365
2347
2331
2316
2302
2288
2276
2263
2250
2233
2217
2199
2181
2162
2144
2127
2112
2095
2081
2065
2052
2040
2033
2028
2021
2011
2000
1989
1975
1963
1953
1943
1934
1927
1919
1914
1909
1902
1900
1898
1895
1894
1892
1891
1888
1888
1886
1884
1881
1881
1882
1884
1884
1885
1882
1881
1879
1872
1864
1856
1849
1844
1840
1837
1836
1837
1837
1836
1836
1836
1838
1840
1840
1842
1842
1844
1844
1844
1844
1843
1843
1846
1847
1850
1850
1850
1849
1851
1852
1854
1856
1860
1858
1860
1862
1862
1864
1866
1871
1880
1892
1900
1901
1894
1884
1875
1868
1860
1855
1852
1850
1851
1852
1856
1862
1868
1874
1881
1884
1888
1885
1881
1876
1869
1863
1857
1854
1853
1856
1859
1862
1864
1865
1869
1874
1878
1879
1881
1882
1886
1886
1888
1889
1889
1887
1884
1880
1878
1879
1880
1880
1880
1879
1880
1881
1886
1890
1892
1893
1894
1893
1894
1894
1893
1892
1892
1891
1890
1888
1886
1883
1879
1875
1874
1874
1875
1878
1882
1887
1895
1902
1909
1914
1918
1922
1923
1922
1919
1914
1910
1905
1901
1897
1895
1895
1895
1898
1902
1904
1907
1906
1908
1907
1906
1905
1903
1903
1900
1901
1906
1911
1918
1926
1931
1931
1927
1919
1911
1903
1897
1893
1887
1884
1884
1885
1887
1892
1892
1892
1894
1895
1896
1898
1899
1900
1900
1899
1898
1898
1898
1899
1901
1903
1904
1904
1907
1908
1908
1906
1903
1901
1901
1908
1901
1902
1903
1904
1906
1909
1911
1915
1918
1921
1927
1932
1938
1938
1935
1929
1925
1919
1917
1914
1915
1916
1917
1917
1919
1922
1926
1929
1932
1934
1935
1933
1930
1925
1921
1919
1921
1924
1930
1933
1934
1938
1939
1941
1945
1947
1950
1953
1950
1948
1943
1938
1935
1932
1926
1922
1918
1915
1915
1914
1914
1915
1916
1917
1917
1918
1919
1922
1922
1925
1929
1934
1939
1944
1948
1951
1954
1956
1959
1962
1964
1962
1957
1951
1944
1939
1940
1934
1932
1933
1935
1937
1940
1939
1937
1939
1941
1944
1950
1955
1960
1962
1964
1965
1962
1961
1961
1960
1962
1959
1954
1949
1943
1941
1940
1939
1942
1945
1947
1949
1950
1951
1952
1950
1950
1950
1952
1953
1956
1960
1962
1962
1963
1961
1959
1956
1952
1951
1952
1952
1956
1959
1962
1965
1967
1967
1966
1964
1961
1958
1957
1957
1958
1961
1962
1963
1963
1959
1960
1958
1958
1957
1955
1957
1959
1965
1970
1974
1976
1975
1974
1971
1966
1962
1957
1952
1947
1941
1939
1938
1939
1941
1944
1953
1958
1968
1976
1981
1987
1991
1996
1999
2002
2003
2004
2005
2004
2002
1997
1991
1987
1981
1977
1974
1975
1975
1978
1979
1981
1982
1985
1986
1989
1990
1993
1992
1993
1991
1990
1990
1992
1997
2002
2008
2012
2014
2016
2018
2020
2022
2024
2026
2026
2028
2026
2025
2024
2022
2020
2019
2020
2024
2028
2031
2039
2047
2056
2066
2076
2085
2094
2099
2100
2100
2098
2096
2096
2097
2107
2118
2134
2153
2176
2199
2220
2241
2258
2272
2281
2283
2283
2280
2270
2256
2238
2216
2192
2166
2146
2126
2113
2102
2098
2098
2100
2107
2116
2126
2137
2142
2148
2147
2142
2133
2123
2112
2101
2092
2089
2085
2083
2081
2080
2081
2082
2080
2078
2072
2067
2060
2056
2046
2038
2031
2022
2010
1999
1987
1975
1964
1954
1947
1942
1942
1943
1945
1947
1951
1952
1953
1953
1950
1947
1947
1948
1950
1952
1952
1953
1951
1950
1950
1950
1951
1951
1955
1961
1968
1978
1982
1987
1989
1985
1983
1978
1974
1966
1960
1950
1940
1931
1924
1919
1918
1918
1922
1928
1938
1951
1968
1987
2005
2023
2045
2068
2097
2128
2164
2204
2242
2281
2318
2354
2387
2417
2444
2462
2473
2478
2472
2461
2441
2413
2379
2339
2293
2237
2174
2102
2017
1923
1822
1712
1596
1479
1369
1270
1188
1129
1094
1086
1100
1136
1192
1262
1341
1424
1504
1579
1648
1713
1776
1838
1893
1942
1985
2019
2046
2066
2078
2081
2076
2065
2048
2031
2014
1996
1980
1965
1951
1943
1942
1943
1950
1959
1968
1979
1994
2007
2020
2028
2035
2037
2034
2028
2021
2015
2013
2012
2010
2008
2007
2007
2006
2007
2009
2013
2018
2024
2029
2036
2037
2038
2038
2035
2034
2031
2030
2027
2024
2022
2022
2024
2031
2036
2043
2050
2052
2054
2054
2053
2050
2045
2044
2042
2043
2045
2047
2052
2054
2056
2056
2057
2058
2057
2056
2057
2060
2064
2068
2075
2084
2094
2103
2108
2112
2112
2108
2106
2101
2099
2096
2095
2095
2096
2098
2098
2095
2092
2088
2089
2089
2089
2092
2092
2093
2093
2095
2098
2100
2103
2104
2103
2104
2104
2106
2109
2113
2118
2120
2124
2128
2131
2133
2136
2140
2143
2147
2150
2151
2154
2158
2161
2165
2166
2166
2166
2166
2169
2173
2179
2185
2190
2192
2195
2202
2208
2213
2217
2219
2224
2228
2233
2236
2240
2239
2240
2244
2249
2253
2258
2263
2268
2276
2284
2293
2300
2306
2310
2312
2314
2313
2313
2313
2315
2319
2326
2334
2345
2356
2369
2380
2393
2402
2410
2415
2420
2427
2432
2438
2445
2453
2462
2468
2472
2478
2484
2490
2497
2505
2512
2520
2529
2538
2546
2553
2558
2564
2569
2574
2583
2590
2596
2602
2608
2618
2629
2638
2648
2655
2660
2664
2667
2668
2668
2669
2668
2669
2671
2674
2680
2685
2693
2704
2713
2724
2734
2741
2745
2744
2743
2737
2731
2722
2718
2710
2701
2690
2679
2667
2655
2647
2638
2631
2625
2620
2614
2605
2594
2578
2558
2541
2520
2500
2477
2453
2432
2409
2388
2366
2348
2332
2318
2304
2290
2277
2265
2249
2235
2220
2203
2188
2172
2157
2140
2124
2110
2093
2080
2067
2056
2045
2033
2021
2006
1993
1979
1963
1950
1935
1925
1917
1914
1916
1916
1919
1919
1913
1908
1901
1896
1891
1885
1878
1870
1861
1853
1847
1843
1838
1837
1837
1839
1840
1840
1840
1839
1837
1841
1841
1843
1844
1845
1848
1849
1848
1849
1846
1844
1841
1840
1842
1843
1846
1848
1850
1851
1849
1843
1837
1834
1831
1831
1833
1839
1844
1847
1848
1851
1849
1850
1849
1849
1851
1853
1854
1856
1858
1861
1863
1869
1871
1874
1877
1878
1878
1879
1878
1876
1871
1869
1868
1868
1870
1870
1871
1873
1876
1878
1877
1876
1878
1878
1878
1877
1876
1874
1870
1868
1865
1865
1867
1868
1869
1871
1873
1876
1879
1879
1878
1879
1879
1878
1877
1874
1872
1872
1874
1878
1881
1887
1892
1896
1896
1895
1892
1890
1887
1886
1881
1878
1876
1876
1878
1882
1885
1889
1890
1890
1888
1889
1890
1891
1892
1892
1891
1892
1892
1895
1896
1899
1901
1902
1903
1903
1905
1909
1910
1910
1909
1905
1903
1900
1898
1896
1894
1890
1887
1884
1880
1877
1877
1878
1883
1887
1893
1898
1902
1904
1903
1900
1896
1891
1886
1882
1879
1876
1875
1874
1873
1873
1873
1874
1875
1876
1881
1882
1886
1889
1890
1894
1895
1898
1900
1899
1897
1893
1886
1882
1879
1880
1884
1890
1898
1900
1904
1905
1907
1911
1914
1918
1919
1922
1923
1922
1922
1917
1909
1902
1895
1891
1890
1890
1892
1896
1902
1909
1916
1922
1926
1929
1932
1926
1919
1913
1906
1903
1903
1903
1904
1904
1909
1913
1917
1920
1922
1925
1925
1924
1924
1926
1925
1924
1925
1925
1926
1927
1924
1919
1917
1914
1913
1913
1914
1917
1919
1921
1922
1924
1924
1926
1927
1928
1928
1928
1928
1929
1930
1934
1935
1934
1933
1932
1931
1932
1932
1931
1930
1932
1929
1934
1940
1942
1941
1940
1936
1931
1928
1927
1923
1922
1921
1918
1918
1916
1916
1918
1917
1916
1916
1916
1920
1924
1928
1931
1933
1938
1940
1940
1938
1937
1937
1936
1936
1936
1938
1941
1942
1944
1944
1944
1942
1941
1938
1936
1938
1943
1947
1950
1953
1954
1952
1950
1948
1947
1946
1950
1956
1961
1966
1967
1968
1970
1970
1970
1970
1967
1965
1962
1957
1952
1947
1942
1938
1935
1934
1933
1932
1932
1933
1936
1939
1942
1946
1950
1954
1958
1962
1965
1968
1973
1978
1980
1983
1985
1987
1988
1990
1993
1997
2003
2009
2015
2021
2025
2028
2030
2034
2041
2049
2051
2053
2053
2047
2042
2034
2026
2024
2024
2030
2039
2052
2068
2086
2109
2130
2151
2171
2188
2202
2214
2220
2222
2220
2213
2206
2196
2185
2173
2161
2149
2137
2126
2116
2106
2096
2088
2081
2076
2075
2076
2078
2080
2082
2081
2080
2077
2073
2067
2064
2064
2064
2062
2057
2054
2054
2052
2052
2048
2046
2044
2039
2036
2028
2022
2013
2005
1995
1983
1974
1966
1957
1952
1948
1945
1943
1942
1941
1941
1942
1943
1944
1945
1946
1948
1951
1952
1953
1951
1949
1948
1947
1943
1940
1939
1941
1940
1943
1946
1951
1955
1958
1962
1966
1971
1975
1974
1972
1967
1960
1952
1944
1938
1930
1929
1928
1928
1926
1926
1929
1936
1945
1957
1971
1987
2008
2034
2064
2096
2136
2178
2222
2268
2310
2352
2388
2420
2446
2464
2477
2487
2494
2493
2482
2464
2432
2394
2348
2292
2229
2154
2070
1975
1876
1771
1662
1552
1447
1357
1286
1235
1208
1204
1220
1253
1300
1360
1430
1504
1582
1658
1732
1800
1862
1919
1967
2010
2043
2066
2081
2087
2087
2078
2066
2050
2033
2014
1995
1977
1963
1954
1947
1945
1944
1945
1950
1956
1963
1973
1986
1998
2008
2013
2014
2010
2006
2000
1993
1988
1983
1979
1978
1977
1977
1982
1986
1989
1993
1995
1998
2002
2004
2006
2006
2007
2005
2006
2009
2012
2015
2020
2024
2027
2031
2033
2036
2038
2039
2039
2039
2037
2035
2029
2024
2020
2017
2015
2015
2015
2017
2021
2025
2029
2031
2036
2037
2036
2034
2030
2028
2027
2023
2023
2024
2028
2035
2041
2048
2052
2055
2058
2061
2065
2068
2073
2077
2080
2083
2086
2087
2086
2083
2080
2076
2074
2074
2074
2077
2084
2092
2100
2109
2116
2122
2129
2135
2144
2140
2134
2125
2116
2108
2103
2101
2102
2104
2105
2107
2108
2112
2115
2116
2118
2122
2126
2134
2141
2149
2156
2163
2167
2171
2176
2179
2184
2188
2193
2200
2203
2206
2208
2209
2212
2215
2218
2220
2224
2228
2231
2234
2237
2237
2237
2236
2239
2245
2249
2257
2264
2270
2276
2280
2283
2284
2284
2284
2287
2290
2295
2302
2312
2322
2336
2350
2364
2375
2383
2387
2387
2386
2388
2392
2394
2398
2405
2410
2420
2429
2441
2452
2465
2478
2490
2503
2512
2520
2526
2530
2538
2548
2556
2565
2572
2577
2578
2577
2576
2573
2572
2573
2576
2576
2577
2578
2581
2586
2590
2597
2605
2614
2620
2630
2640
2649
2656
2660
2662
2662
2661
2659
2660
2658
2655
2652
2649
2646
2644
2640
2635
2628
2623
2616
2610
2604
2596
2586
2576
2562
2547
2530
2511
2493
2474
2454
2436
2419
2400
2384
2366
2350
2336
2323
2311
2297
2282
2267
2250
2234
2216
2200
2181
2159
2138
2118
2102
2089
2076
2068
2059
2052
2045
2040
2033
2025
2014
1999
1980
1966
1949
1937
1926
1917
1910
1904
1900
1898
1897
1893
1888
1882
1878
1876
1874
1872
1872
1871
1870
1870
1865
1861
1858
1857
1857
1858
1860
1858
1856
1855
1854
1853
1854
1857
1860
1861
1860
1858
1856
1854
1851
1849
1849
1848
1846
1843
1840
1839
1838
1838
1838
1840
1841
1841
1843
1843
1843
1844
1842
1844
1841
1838
1835
1834
1838
1842
1849
1853
1854
1857
1860
1866
1870
1872
1873
1873
1871
1868
1866
1862
1861
1862
1865
1872
1880
1889
1899
1908
1914
1915
1912
1906
1896
1882
1869
1856
1847
1840
1836
1836
1838
1842
1847
1853
1862
1869
1877
1884
1890
1899
1902
1904
1903
1900
1896
1892
1890
1887
1888
1890
1893
1894
1895
1894
1894
1893
1890
1889
1886
1884
1879
1879
1876
1874
1876
1881
1886
1890
1893
1894
1892
1891
1889
1885
1881
1879
1877
1878
1880
1882
1885
1891
1895
1900
1903
1903
1904
1903
1902
1901
1898
1894
1892
1889
1886
1886
1884
1882
1881
1879
1879
1881
1882
1885
1891
1894
1897
1898
1898
1895
1891
1886
1879
1872
1868
1865
1868
1875
1886
1894
1901
1903
1903
1898
1896
1892
1888
1886
1880
1873
1867
1863
1862
1864
1869
1876
1881
1884
1889
1890
1890
1891
1890
1889
1888
1888
1886
1886
1884
1881
1878
1878
1879
1880
1882
1885
1887
1888
1890
1890
1889
1888
1887
1886
1886
1885
1884
1882
1883
1882
1882
1881
1879
1880
1883
1886
1894
1897
1905
1911
1917
1919
1919
1920
1918
1915
1912
1909
1903
1899
1896
1895
1892
1891
1890
1890
1892
1892
1894
1899
1903
1909
1910
1907
1904
1902
1900
1900
1899
1902
1905
1906
1904
1901
1895
1891
1887
1884
1884
1884
1888
1895
1902
1911
1918
1923
1925
1929
1929
1928
1923
1919
1914
1910
1909
1908
1910
1911
1914
1915
1915
1915
1913
1913
1912
1916
1919
1923
1926
1926
1926
1928
1925
1919
1914
1910
1905
1902
1903
1905
1905
1906
1908
1911
1915
1922
1928
1932
1938
1943
1945
1947
1947
1947
1946
1944
1938
1935
1932
1930
1928
1928
1927
1930
1934
1939
1943
1945
1946
1947
1949
1951
1953
1952
1949
1947
1948
1948
1951
1954
1957
1957
1959
1959
1957
1956
1952
1950
1946
1942
1942
1942
1946
1951
1958
1963
1966
1968
1969
1967
1963
1959
1954
1947
1942
1936
1931
1928
1926
1928
1932
1937
1943
1948
1958
1964
1970
1974
1974
1974
1972
1968
1967
1968
1970
1974
1978
1984
1994
2002
2009
2015
2020
2020
2019
2014
2010
2006
2003
2003
2004
2006
2013
2022
2028
2035
2040
2046
2051
2055
2058
2061
2065
2069
2075
2084
2094
2110
2128
2147
2164
2184
2199
2214
2224
2233
2236
2235
2228
2220
2210
2196
2183
2168
2156
2145
2133
2123
2114
2108
2099
2092
2086
2080
2078
2076
2076
2076
2078
2081
2084
2084
2084
2080
2077
2073
2071
2066
2062
2057
2052
2046
2044
2042
2045
2049
2050
2051
2045
2038
2029
2018
2007
1993
1979
1964
1948
1937
1932
1931
1932
1931
1928
1925
1922
1919
1916
1915
1916
1918
1924
1930
1936
1942
1945
1946
1946
1947
1950
1952
1955
1958
1960
1964
1965
1966
1965
1964
1961
1954
1947
1940
1930
1924
1920
1916
1914
1912
1912
1915
1917
1922
1927
1935
1945
1954
1963
1975
1989
2002
2017
2038
2064
2097
2138
2186
2236
2287
2337
2384
2425
2455
2478
2494
2508
2517
2524
2524
2512
2486
2444
2389
2328
2260
2188
2108
2018
1919
1815
1708
1598
1489
1390
1308
1244
1202
1182
1184
1201
1230
1272
1324
1383
1452
1524
1600
1676
1749
1817
1877
1928
1969
2000
2022
2033
2037
2036
2028
2020
2007
1996
1984
1975
1967
1962
1958
1954
1951
1951
1952
1955
1961
1967
1975
1978
1981
1982
1985
1991
1995
1999
2000
1999
1995
1992
1989
1987
1986
1988
1993
2000
2007
2017
2023
2022
2020
2013
2009
2006
2006
2008
2012
2015
2018
2020
2023
2026
2026
2023
2021
2019
2017
2015
2014
2013
2014
2015
2018
2020
2023
2026
2029
2031
2032
2034
2038
2045
2052
2063
2074
2084
2092
2100
2104
2101
2093
2083
2075
2071
2074
2086
2101
2118
2128
2126
2118
2106
2096
2090
2090
2093
2100
2104
2107
2109
2109
2112
2114
2112
2107
2099
2090
2081
2074
2076
2080
2085
2088
2090
2093
2096
2100
2104
2106
2110
2114
2118
2121
2124
2126
2129
2131
2133
2137
2138
2140
2138
2132
2126
2122
2122
2122
2125
2132
2143
2155
2167
2182
2194
2200
2203
2200
2197
2192
2187
2182
2180
2180
2183
2189
2198
2210
2221
2233
2244
2255
2264
2270
2280
2289
2295
2294
2286
2279
2269
2263
2263
2264
2263
2266
2272
2280
2290
2301
2313
2325
2336
2348
2357
2363
2368
2373
2377
2384
2391
2399
2408
2416
2428
2437
2447
2454
2461
2467
2472
2478
2484
2490
2497
2507
2517
2525
2536
2545
2554
2566
2578
2590
2600
2608
2613
2614
2615
2616
2620
2625
2632
2640
2650
2660
2669
2676
2683
2685
2683
2678
2673
2668
2665
2662
2664
2666
2670
2675
2678
2682
2684
2685
2687
2688
2686
2686
2684
2682
2679
2676
2674
2676
2675
2670
2659
2643
2625
2602
2578
2550
2527
2506
2487
2469
2452
2437
2420
2402
2382
2359
2340
2318
2300
2284
2268
2253
2234
2227
2215
2201
2187
2172
2154
2140
2123
2109
2093
2080
2067
2056
2045
2037
2031
2024
2015
2008
2000
1992
1983
1974
1965
1954
1941
1929
1918
1910
1901
1894
1887
1883
1878
1877
1879
1879
1881
1881
1883
1885
1887
1889
1887
1883
1876
1868
1862
1857
1851
1847
1845
1841
1835
1830
1826
1825
1824
1829
1837
1843
1849
1857
1865
1872
1877
1882
1885
1885
1881
1875
1870
1861
1848
1835
1824
1817
1807
1803
1802
1805
1808
1814
1818
1823
1831
1836
1844
1851
1856
1860
1864
1869
1871
1876
1881
1884
1887
1888
1888
1889
1889
1890
1892
1893
1891
1887
1881
1875
1867
1863
1861
1863
1866
1872
1878
1883
1882
1882
1883
1882
1879
1878
1880
1882
1883
1885
1884
1884
1883
1884
1885
1887
1890
1892
1893
1894
1896
1897
1898
1898
1899
1899
1902
1902
1902
1902
1899
1898
1897
1896
1896
1897
1897
1897
1897
1895
1892
1894
1898
1904
1911
1922
1932
1939
1944
1945
1945
1941
1932
1922
1911
1902
1893
1888
1887
1891
1896
1903
1909
1912
1914
1915
1916
1919
1921
1922
1924
1925
1923
1919
1917
1914
1910
1909
1911
1913
1914
1915
1917
1918
1918
1916
1914
1912
1912
1914
1916
1916
1914
1911
1910
1908
1908
1905
1903
1900
1899
1897
1900
1903
1907
1909
1911
1913
1917
1919
1922
1925
1928
1933
1936
1938
1938
1939
1937
1933
1930
1927
1925
1924
1924
1925
1928
1930
1930
1928
1926
1924
1924
1924
1925
1923
1919
1917
1917
1916
1914
1912
1912
1911
1910
1909
1910
1910
1913
1913
1914
1915
1917
1922
1929
1936
1942
1946
1949
1947
1944
1940
1938
1938
1939
1939
1940
1941
1944
1946
1948
1947
1943
1939
1934
1928
1925
1925
1932
1938
1943
1950
1953
1953
1954
1954
1955
1955
1952
1952
1951
1948
1946
1945
1944
1943
1943
1943
1943
1946
1947
1951
1956
1960
1962
1963
1963
1962
1958
1955
1952
1948
1944
1942
1942
1944
1949
1958
1969
1979
1986
1988
1987
1983
1979
1974
1969
1961
1952
1947
1945
1940
1936
1934
1933
1932
1931
1933
1937
1944
1952
1960
1968
1975
1978
1979
1982
1983
1982
1983
1986
1987
1988
1989
1991
1991
1986
1980
1973
1968
1965
1965
1966
1966
1969
1973
1978
1982
1985
1987
1989
1990
1989
1986
1983
1980
1976
1972
1970
1970
1972
1972
1973
1974
1976
1979
1983
1986
1986
1986
1985
1986
1985
1985
1986
1988
1991
1990
1991
1992
1992
1992
1992
1993
1995
1997
2002
2004
2005
2005
2003
1996
1988
1980
1974
1971
1969
1967
1965
1966
1967
1968
1970
1971
1975
1978
1983
1987
1989
1992
1992
1994
1990
1990
1991
1990
1989
1989
1991
1993
1992
1991
1991
1991
1990
1992
1993
1994
1993
1993
1994
1995
1995
1995
1995
1996
1998
2002
2010
2019
2026
2034
2038
2041
2041
2042
2044
2045
2043
2044
2045
2047
2050
2054
2060
2065
2069
2072
2074
2076
2080
2082
2087
2090
2090
2090
2091
2092
2096
2104
2117
2130
2146
2166
2186
2208
2225
2240
2251
2262
2269
2275
2283
2288
2292
2288
2279
2266
2246
2225
2202
2180
2157
2136
2120
2110
2103
2100
2102
2106
2109
2112
2115
2116
2116
2116
2114
2107
2100
2094
2090
2087
2086
2088
2088
2089
2088
2088
2092
2094
2098
2097
2095
2087
2076
2067
2056
2042
2032
2020
2009
1996
1983
1972
1959
1950
1943
1941
1941
1942
1941
1941
1944
1944
1947
1950
1953
1955
1958
1963
1970
1975
1981
1987
1990
1990
1988
1985
1983
1981
1978
1977
1977
1977
1976
1976
1976
1973
1969
1967
1964
1963
1959
1956
1954
1953
1953
1956
1961
1967
1977
1989
2001
2012
2021
2030
2037
2048
2066
2091
2124
2163
2208
2256
2306
2358
2409
2455
2491
2517
2533
2541
2542
2534
2514
2482
2439
2388
2332
2271
2206
2134
2056
1966
1869
1764
1654
1544
1434
1330
1241
1171
1124
1104
1110
1132
1175
1231
1298
1374
1457
1540
1622
1704
1778
1844
1900
1950
1994
2024
2046
2060
2066
2067
2061
2053
2038
2025
2012
2004
1995
1988
1979
1972
1969
1968
1967
1970
1975
1979
1981
1986
1989
1993
1996
2000
2003
2008
2014
2019
2025
2029
2036
2040
2039
2034
2026
2016
2012
2008
2005
2004
2004
2005
2009
2015
2023
2028
2032
2033
2036
2037
2041
2045
2052
2058
2062
2063
2063
2059
2057
2056
2054
2051
2046
2040
2036
2034
2034
2036
2038
2039
2041
2045
2052
2057
2062
2070
2078
2084
2089
2094
2098
2100
2099
2101
2104
2108
2110
2108
2103
2098
2093
2088
2084
2081
2078
2079
2081
2084
2089
2092
2098
2102
2106
2112
2117
2124
2131
2139
2149
2157
2163
2162
2163
2159
2155
2149
2145
2143
2141
2139
2138
2134
2132
2132
2135
2138
2144
2146
2155
2163
2169
2176
2182
2185
2185
2184
2183
2182
2184
2187
2192
2201
2211
2218
2227
2233
2237
2237
2237
2234
2229
2226
2226
2225
2224
2225
2228
2231
2234
2240
2246
2253
2260
2265
2273
2280
2285
2291
2299
2308
2314
2322
2330
2339
2348
2357
2365
2374
2380
2385
2391
2393
2394
2392
2394
2394
2396
2396
2398
2403
2404
2409
2415
2423
2432
2442
2454
2465
2478
2492
2503
2514
2526
2538
2551
2565
2577
2589
2598
2608
2617
2621
2628
2632
2636
2640
2643
2643
2641
2642
2642
2643
2647
2649
2654
2659
2663
2668
2676
2683
2692
2699
2708
2720
2729
2736
2742
2742
2741
2739
2735
2732
2733
2736
2742
2745
2748
2749
2746
2743
2736
2726
2715
2703
2692
2679
2666
2652
2636
2620
2605
2590
2576
2564
2550
2533
2513
2493
2472
2450
2425
2404
2384
2364
2342
2324
2307
2290
2275
2261
2248
2234
2222
2212
2202
2190
2176
2159
2140
2122
2102
2081
2063
2045
2030
2018
2010
2003
1997
1990
1985
1976
1965
1957
1949
1940
1932
1924
1916
1910
1902
1896
1892
1886
1884
1884
1890
1897
1902
1910
1915
1917
1915
1910
1904
1898
1890
1882
1877
1869
1862
1856
1852
1849
1846
1843
1840
1838
1838
1839
1840
1842
1842
1843
1846
1848
1852
1859
1862
1866
1870
1872
1871
1871
1871
1872
1875
1879
1882
1885
1884
1879
1872
1866
1862
1859
1854
1852
1850
1851
1850
1851
1855
1858
1864
1871
1878
1880
1882
1882
1883
1885
1887
1888
1885
1880
1874
1871
1868
1867
1866
1867
1871
1874
1877
1881
1882
1883
1881
1879
1878
1878
1878
1878
1880
1882
1882
1879
1879
1878
1879
1879
1878
1876
1874
1872
1872
1873
1875
1877
1879
1882
1885
1890
1892
1896
1900
1902
1904
1904
1903
1903
1901
1895
1892
1890
1891
1891
1891
1889
1887
1885
1883
1885
1887
1890
1894
1898
1906
1912
1918
1924
1926
1922
1912
1904
1898
1897
1894
1894
1894
1892
1892
1895
1897
1901
1904
1908
1913
1915
1913
1909
1904
1900
1897
1897
1898
1898
1899
1900
1902
1906
1910
1913
1918
1919
1919
1917
1911
1907
1903
1902
1904
1908
1911
1913
1917
1917
1914
1912
1912
1910
1906
1904
1903
1901
1899
1899
1901
1903
1904
1908
1911
1915
1918
1919
1917
1915
1913
1910
1911
1913
1917
1922
1931
1937
1938
1939
1934
1928
1922
1915
1908
1901
1894
1889
1885
1881
1876
1874
1874
1872
1872
1874
1875
1877
1880
1884
1889
1894
1900
1906
1912
1915
1918
1919
1921
1921
1919
1916
1916
1919
1926
1940
1954
1969
1983
1993
1997
1994
1989
1977
1964
1951
1937
1924
1915
1908
1903
1899
1899
1899
1901
1903
1907
1909
1912
1913
1914
1914
1910
1909
1906
1902
1901
1903
1910
1915
1922
1928
1932
1935
1937
1938
1941
1941
1943
1946
1949
1953
1958
1963
1968
1969
1966
1964
1961
1958
1952
1952
1952
1951
1948
1943
1936
1929
1919
1914
1911
1908
1906
1906
1906
1906
1909
1913
1919
1925
1926
1931
1937
1944
1948
1950
1954
1955
1954
1953
1951
1950
1947
1943
1938
1936
1934
1934
1936
1940
1945
1950
1958
1966
1975
1983
1991
1998
2003
2007
2009
2005
1999
1992
1986
1978
1969
1960
1952
1946
1945
1944
1945
1946
1946
1947
1949
1950
1951
1954
1955
1956
1956
1958
1959
1961
1963
1964
1965
1964
1962
1960
1961
1962
1964
1966
1970
1971
1973
1974
1972
1971
1969
1967
1966
1965
1966
1967
1967
1968
1973
1975
1978
1979
1981
1982
1984
1988
1992
1997
2002
2006
2008
2007
2004
1996
1988
1983
1978
1974
1968
1966
1966
1968
1977
1985
1990
1994
1994
1992
1992
1988
1982
1979
1975
1973
1968
1967
1966
1966
1966
1963
1963
1962
1962
1964
1971
1976
1983
1990
1996
2001
2003
2006
2010
2012
2013
2012
2007
2001
1995
1989
1983
1978
1976
1973
1975
1975
1975
1977
1981
1984
1988
1993
1997
1999
1998
1996
1996
1995
1995
1996
1997
1999
1998
1998
1999
2001
2004
2009
2012
2017
2019
2023
2026
2031
2033
2038
2041
2044
2045
2049
2051
2053
2056
2057
2057
2056
2056
2053
2052
2051
2050
2050
2053
2055
2059
2065
2070
2076
2082
2090
2104
2118
2133
2152
2176
2197
2219
2237
2255
2273
2285
2296
2304
2302
2297
2287
2275
2257
2236
2215
2198
2182
2166
2151
2140
2129
2120
2112
2107
2106
2109
2112
2116
2121
2123
2128
2133
2137
2139
2138
2134
2125
2116
2110
2106
2104
2100
2098
2094
2092
2088
2082
2078
2070
2062
2053
2040
2028
2014
2001
1989
1978
1968
1960
1953
1950
1947
1946
1945
1946
1948
1953
1960
1967
1974
1982
1992
2001
2007
2007
2005
1997
1988
1979
1972
1965
1958
1954
1952
1953
1951
1952
1953
1954
1955
1959
1963
1966
1964
1962
1961
1957
1955
1954
1957
1960
1965
1970
1979
1985
1990
1994
1997
2002
2009
2018
2029
2039
2053
2071
2094
2124
2158
2197
2239
2283
2326
2368
2409
2440
2466
2484
2496
2504
2504
2498
2480
2448
2404
2348
2287
2216
2141
2062
1973
1878
1780
1678
1573
1465
1364
1274
1204
1154
1128
1126
1147
1183
1231
1291
1358
1433
1511
1590
1667
1743
1812
1879
1934
1980
2010
2029
2037
2041
2040
2033
2027
2020
2008
1999
1987
1978
1966
1961
1962
1965
1971
1981
1995
2008
2021
2031
2035
2038
2039
2039
2041
2042
2041
2036
2031
2026
2019
2013
2009
2006
2006
2009
2011
2017
2021
2027
2034
2038
2040
2039
2039
2038
2037
2036
2039
2042
2044
2049
2052
2052
2054
2054
2056
2058
2058
2060
2062
2066
2066
2067
2070
2070
2070
2074
2076
2082
2089
2094
2100
2102
2101
2098
2093
2090
2086
2083
2082
2080
2082
2087
2094
2103
2112
2118
2125
2128
2129
2128
2135
2121
2114
2107
2102
2099
2098
2098
2098
2100
2102
2106
2112
2115
2120
2124
2129
2134
2137
2139
2145
2148
2150
2153
2157
2162
2167
2170
2173
2176
2176
2174
2174
2173
2170
2168
2167
2164
2163
2161
2166
2169
2173
2177
2182
2186
2189
2193
2196
2198
2202
2207
2211
2217
2221
2224
2230
2236
2242
2248
2253
2254
2252
2250
2250
2249
2252
2253
2258
2262
2268
2276
2283
2290
2298
2308
2319
2326
2330
2332
2332
2331
2328
2327
2326
2327
2331
2337
2348
2359
2368
2376
2384
2391
2400
2410
2421
2432
2442
2452
2460
2462
2465
2469
2474
2479
2482
2489
2491
2495
2500
2510
2520
2531
2543
2551
2563
2575
2586
2598
2610
2618
2624
2630
2636
2642
2648
2653
2658
2662
2661
2659
2659
2658
2660
2663
2669
2678
2688
2696
2704
2709
2713
2716
2718
2721
2721
2720
2720
2721
2720
2722
2724
2724
2724
2728
2730
2729
2726
2723
2718
2712
2705
2697
2688
2678
2668
2658
2647
2632
2616
2598
2580
2560
2540
2516
2495
2476
2455
2437
2420
2403
2384
2364
2345
2328
2310
2292
2277
2264
2249
2233
2218
2200
2184
2163
2143
2126
2107
2092
2082
2070
2057
2043
2030
2018
2003
1992
1983
1972
1962
1953
1945
1938
1931
1925
1921
1917
1912
1910
1910
1905
1901
1897
1893
1889
1884
1878
1874
1868
1867
1867
1865
1867
1867
1867
1865
1862
1858
1855
1854
1854
1851
1847
1847
1845
1843
1844
1847
1850
1852
1853
1854
1854
1857
1860
1862
1863
1862
1862
1862
1859
1852
1845
1839
1832
1829
1827
1827
1829
1832
1836
1839
1844
1847
1850
1852
1854
1857
1860
1865
1868
1869
1869
1865
1861
1860
1863
1871
1876
1882
1887
1891
1895
1900
1905
1914
1915
1910
1903
1893
1882
1874
1867
1861
1857
1854
1853
1852
1852
1853
1854
1856
1858
1857
1861
1866
1871
1877
1883
1890
1892
1891
1888
1884
1879
1874
1870
1868
1869
1869
1871
1875
1878
1880
1881
1885
1889
1890
1894
1897
1897
1896
1895
1897
1895
1894
1892
1891
1889
1889
1891
1895
1897
1899
1903
1906
1911
1912
1911
1909
1908
1903
1899
1895
1891
1888
1888
1888
1886
1886
1887
1890
1892
1889
1887
1887
1891
1897
1903
1911
1917
1923
1927
1927
1924
1919
1917
1917
1917
1913
1910
1906
1901
1898
1896
1895
1897
1899
1902
1910
1917
1922
1930
1935
1939
1942
1945
1944
1937
1927
1915
1902
1892
1884
1877
1875
1875
1876
1875
1877
1877
1881
1886
1895
1904
1907
1910
1910
1909
1907
1908
1909
1909
1906
1902
1900
1899
1896
1898
1902
1906
1906
1906
1907
1908
1910
1911
1913
1916
1921
1927
1933
1937
1938
1938
1937
1935
1931
1928
1926
1922
1920
1917
1914
1915
1916
1918
1919
1919
1918
1917
1914
1912
1907
1904
1904
1908
1912
1916
1921
1928
1932
1934
1936
1934
1932
1929
1926
1922
1922
1919
1922
1923
1924
1925
1926
1926
1928
1929
1932
1935
1936
1933
1934
1934
1934
1934
1935
1934
1932
1932
1931
1934
1936
1938
1942
1942
1942
1942
1941
1937
1935
1929
1923
1919
1917
1917
1923
1928
1935
1943
1952
1962
1969
1970
1966
1961
1956
1950
1947
1944
1938
1935
1932
1933
1934
1937
1937
1938
1941
1944
1949
1953
1954
1956
1959
1960
1959
1958
1958
1958
1959
1958
1959
1959
1957
1958
1955
1951
1947
1946
1947
1949
1951
1956
1960
1965
1967
1967
1971
1973
1972
1972
1972
1971
1968
1966
1965
1963
1960
1956
1953
1950
1950
1950
1951
1952
1952
1953
1957
1958
1958
1959
1958
1956
1953
1954
1954
1953
1952
1952
1954
1955
1957
1958
1962
1966
1969
1973
1976
1978
1978
1978
1979
1978
1975
1972
1969
1966
1963
1961
1961
1962
1962
1965
1967
1970
1972
1972
1972
1974
1976
1978
1979
1980
1978
1975
1973
1974
1975
1979
1985
1991
1995
1996
1998
1994
1992
1990
1990
1988
1990
1990
1990
1988
1985
1981
1980
1976
1974
1972
1973
1974
1978
1983
1988
1992
1995
1996
2000
2001
2001
2002
2002
2004
2004
2001
1998
1994
1991
1989
1989
1989
1990
1990
1992
1993
1994
1994
1997
1997
1993
1991
1992
1991
1990
1989
1987
1984
1983
1983
1987
1991
1990
1990
1993
1995
1996
1996
1999
2001
2004
2008
2012
2018
2022
2028
2034
2038
2042
2044
2049
2052
2052
2053
2056
2059
2061
2064
2067
2068
2070
2072
2074
2077
2077
2078
2077
2078
2078
2080
2083
2085
2092
2102
2119
2137
2159
2182
2208
2231
2252
2273
2293
2307
2316
2322
2322
2317
2304
2287
2268
2246
2221
2197
2176
2155
2138
2127
2121
2119
2116
2118
2119
2119
2120
2121
2119
2117
2112
2108
2104
2102
2101
2106
2110
2113
2112
2110
2109
2106
2101
2096
2092
2088
2080
2070
2061
2050
2036
2026
2015
2004
1990
1978
1968
1960
1950
1943
1939
1935
1933
1935
1938
1943
1950
1955
1961
1967
1970
1972
1975
1977
1980
1982
1985
1985
1983
1980
1978
1975
1972
1970
1968
1968
1966
1964
1963
1962
1961
1962
1961
1962
1963
1964
1966
1966
1964
1964
1963
1962
1959
1958
1957
1957
1958
1959
1962
1964
1964
1966
1972
1984
2006
2037
2074
2114
2158
2206
2253
2301
2346
2388
2425
2453
2470
2477
2477
2473
2465
2450
2426
2394
2348
2294
2235
2166
2092
2011
1925
1832
1732
1625
1515
1406
1302
1211
1141
1095
1074
1078
1102
1143
1198
1262
1338
1418
1502
1588
1672
1750
1820
1884
1938
1983
2019
2046
2068
2078
2080
2075
2066
2053
2035
2021
2008
1999
1993
1986
1981
1975
1970
1966
1965
1965
1964
1965
1967
1971
1976
1983
1992
1992
2003
2004
2005
2006
2008
2010
2013
2015
2020
2028
2035
2041
2045
2046
2045
2041
2037
2033
2029
2026
2023
2023
2025
2026
2028
2031
2036
2040
2042
2044
2043
2042
2040
2040
2041
2043
2044
2046
2048
2050
2051
2057
2062
2066
2070
2072
2074
2076
2075
2077
2079
2080
2080
2080
2084
2086
2089
2094
2099
2102
2106
2112
2116
2120
2124
2125
2124
2120
2115
2108
2103
2097
2090
2086
2087
2088
2092
2097
2106
2117
2125
2132
2138
2140
2140
2142
2142
2142
2141
2139
2138
2136
2136
2137
2139
2139
2138
2137
2138
2140
2146
2151
2159
2166
2172
2178
2182
2186
2188
2192
2192
2195
2200
2204
2211
2214
2215
2216
2217
2218
2220
2222
2226
2229
2233
2237
2242
2249
2256
2262
2267
2270
2271
2274
2280
2283
2283
2282
2281
2278
2275
2274
2275
2277
2281
2286
2291
2297
2304
2310
2319
2330
2345
2356
2366
2376
2383
2390
2395
2399
2402
2407
2413
2418
2425
2430
2437
2444
2452
2460
2470
2480
2491
2502
2510
2514
2516
2519
2526
2532
2538
2544
2553
2565
2576
2588
2602
2616
2631
2647
2660
2669
2673
2673
2671
2667
2660
2656
2656
2659
2663
2671
2678
2685
2695
2702
2712
2720
2730
2737
2740
2740
2740
2741
2743
2744
2746
2749
2751
2750
2746
2740
2737
2734
2731
2728
2724
2717
2708
2698
2689
2677
2666
2654
2645
2632
2616
2596
2576
2552
2531
2511
2491
2471
2451
2430
2410
2388
2368
2346
2328
2308
2289
2272
2255
2238
2220
2202
2185
2165
2146
2124
2107
2092
2078
2068
2057
2047
2035
2023
2011
2000
1988
1976
1967
1956
1946
1938
1936
1935
1932
1932
1931
1927
1924
1918
1914
1909
1903
1897
1892
1885
1878
1872
1867
1859
1854
1847
1844
1841
1840
1840
1843
1845
1847
1851
1855
1855
1856
1853
1851
1847
1845
1844
1845
1843
1838
1834
1831
1829
1828
1829
1831
1834
1838
1841
1845
1849
1849
1851
1850
1849
1845
1842
1841
1840
1835
1836
1836
1836
1838
1839
1842
1843
1842
1844
1842
1838
1834
1831
1831
1832
1835
1837
1841
1847
1850
1852
1853
1853
1852
1852
1854
1856
1856
1858
1860
1861
1860
1858
1857
1857
1855
1855
1857
1858
1857
1859
1858
1858
1856
1854
1854
1855
1855
1858
1863
1867
1871
1874
1878
1879
1882
1885
1887
1887
1885
1885
1886
1884
1881
1879
1879
1881
1884
1884
1887
1884
1881
1878
1879
1879
1880
1878
1876
1872
1868
1865
1866
1867
1868
1871
1876
1882
1890
1895
1903
1909
1914
1916
1917
1913
1905
1897
1890
1879
1869
1860
1857
1854
1852
1852
1852
1857
1862
1866
1873
1877
1880
1884
1889
1891
1891
1892
1893
1895
1897
1898
1900
1901
1901
1900
1904
1902
1900
1897
1895
1892
1887
1886
1883
1881
1879
1881
1883
1884
1884
1884
1885
1884
1885
1887
1891
1896
1898
1900
1904
1907
1908
1908
1906
1904
1901
1900
1900
1901
1901
1901
1903
1902
1902
1900
1898
1895
1892
1888
1889
1889
1887
1885
1885
1885
1887
1891
1895
1897
1897
1896
1895
1892
1888
1886
1886
1890
1894
1898
1903
1904
1906
1904
1902
1903
1900
1900
1900
1900
1901
1903
1907
1911
1914
1917
1919
1921
1921
1923
1924
1926
1926
1925
1922
1916
1910
1906
1903
1902
1901
1902
1904
1905
1906
1909
1915
1922
1929
1934
1939
1945
1949
1949
1949
1945
1941
1939
1939
1939
1942
1945
1948
1947
1944
1939
1937
1932
1928
1923
1917
1913
1910
1910
1914
1914
1917
1921
1926
1930
1930
1931
1934
1934
1933
1934
1939
1942
1948
1954
1958
1961
1959
1957
1955
1951
1944
1939
1932
1928
1923
1921
1921
1921
1922
1925
1928
1933
1938
1943
1953
1966
1978
1986
1990
1987
1983
1974
1967
1958
1950
1947
1946
1948
1949
1948
1948
1946
1948
1952
1957
1960
1960
1961
1960
1958
1955
1951
1948
1946
1944
1942
1941
1940
1941
1943
1945
1946
1948
1951
1956
1962
1967
1975
1982
1986
1989
1991
1993
1991
1988
1986
1983
1977
1972
1968
1965
1962
1957
1952
1952
1950
1948
1947
1948
1945
1944
1944
1946
1947
1948
1952
1956
1958
1960
1961
1963
1963
1963
1962
1962
1962
1964
1969
1974
1977
1977
1974
1973
1971
1967
1965
1967
1967
1969
1971
1975
1977
1977
1978
1981
1983
1985
1985
1986
1985
1985
1983
1982
1983
1985
1989
1989
1989
1988
1985
1985
1983
1984
1988
1991
1990
1989
1990
1990
1992
1991
1992
1992
1992
1992
1991
1989
1986
1981
1977
1973
1965
1961
1959
1960
1963
1965
1966
1972
1977
1977
1979
1982
1982
1981
1979
1979
1979
1980
1981
1985
1986
1988
1990
1993
1995
1996
2000
2000
2003
2004
2002
2000
1997
1995
1993
1994
1996
1999
2002
2005
2009
2012
2015
2018
2023
2027
2030
2037
2044
2053
2060
2067
2076
2084
2092
2101
2106
2108
2110
2112
2112
2114
2117
2119
2122
2126
2133
2146
2156
2170
2188
2206
2226
2242
2258
2271
2281
2289
2294
2296
2295
2290
2282
2270
2255
2234
2212
2190
2169
2151
2138
2130
2126
2123
2122
2120
2114
2106
2102
2098
2097
2097
2098
2102
2103
2102
2102
2101
2097
2092
2086
2083
2081
2082
2081
2082
2078
2074
2069
2065
2059
2052
2042
2033
2021
2010
2001
1994
1986
1980
1973
1968
1962
1957
1953
1952
1953
1954
1955
1959
1961
1963
1967
1970
1973
1974
1975
1977
1979
1978
1980
1982
1983
1988
1990
1995
2000
2004
2008
2011
2008
2002
1994
1984
1977
1968
1962
1956
1953
1948
1944
1943
1943
1947
1951
1957
1962
1970
1982
1994
2006
2018
2030
2047
2068
2096
2128
2167
2207
2250
2297
2341
2381
2413
2438
2457
2470
2478
2482
2482
2473
2450
2414
2369
2315
2253
2186
2111
2028
1936
1841
1740
1634
1525
1418
1316
1222
1146
1095
1072
1072
1094
1133
1184
1247
1318
1393
1474
1554
1632
1708
1778
1844
1899
1950
1994
2025
2048
2064
2070
2072
2066
2055
2041
2026
2009
1994
1983
1974
1969
1969
1971
1977
1983
1990
1997
2004
2012
2018
2022
2024
2024
2023
2025
2024
2022
2020
2018
2015
2014
2012
2014
2016
2018
2020
2023
2027
2033
2037
2042
2044
2049
2049
2050
2052
2052
2052
2050
2045
2038
2033
2030
2029
2031
2033
2037
2039
2041
2043
2046
2046
2045
2044
2042
2041
2042
2046
2056
2063
2070
2075
2078
2080
2077
2077
2080
2083
2084
2084
2085
2085
2084
2086
2087
2090
2092
2093
2094
2097
2101
2104
2110
2115
2118
2120
2120
2120
2121
2124
2126
2126
2126
2122
2120
2116
2114
2112
2110
2108
2106
2106
2106
2107
2107
2106
2109
2110
2113
2117
2124
2134
2141
2148
2155
2158
2160
2159
2158
2155
2152
2151
2154
2159
2165
2169
2177
2185
2192
2197
2201
2208
2213
2220
2227
2233
2239
2242
2246
2247
2244
2245
2242
2241
2240
2240
2239
2239
2238
2241
2248
2255
2263
2274
2284
2293
2297
2304
2308
2313
2320
2324
2331
2336
2338
2340
2344
2346
2351
2354
2361
2368
2376
2384
2393
2402
2411
2423
2435
2446
2456
2466
2474
2478
2480
2481
2481
2484
2488
2492
2499
2505
2515
2524
2534
2542
2550
2557
2570
2580
2589
2598
2607
2614
2618
2622
2626
2629
2631
2633
2636
2641
2650
2660
2670
2681
2691
2700
2709
2717
2722
2725
2729
2732
2733
2735
2736
2735
2732
2730
2730
2730
2730
2730
2729
2729
2726
2728
2728
2728
2726
2723
2719
2712
2700
2689
2675
2660
2642
2625
2604
2584
2564
2542
2523
2503
2484
2467
2448
2428
2407
2386
2366
2346
2326
2306
2287
2269
2252
2237
2222
2207
2192
2179
2164
2150
2135
2121
2107
2098
2088
2080
2071
2059
2043
2027
2009
1991
1971
1953
1936
1922
1910
1904
1903
1899
1898
1893
1887
1879
1871
1867
1864
1861
1862
1861
1860
1855
1848
1842
1836
1831
1828
1823
1820
1818
1818
1820
1822
1822
1823
1824
1826
1828
1824
1820
1823
1824
1825
1828
1832
1836
1837
1838
1839
1839
1837
1836
1833
1823
1809
1800
1799
1802
1809
1816
1823
1827
1830
1832
1833
1833
1830
1829
1829
1830
1832
1834
1836
1838
1840
1842
1845
1848
1851
1854
1856
1856
1855
1854
1854
1853
1852
1850
1850
1850
1848
1847
1850
1854
1854
1854
1851
1847
1844
1843
1845
1844
1843
1840
1840
1841
1841
1843
1848
1854
1859
1866
1870
1871
1868
1867
1865
1864
1868
1876
1887
1900
1910
1917
1923
1926
1924
1919
1912
1904
1892
1882
1876
1870
1866
1864
1862
1860
1859
1858
1858
1859
1860
1862
1865
1870
1874
1877
1880
1885
1888
1891
1892
1892
1890
1887
1887
1886
1885
1888
1892
1896
1898
1901
1901
1897
1895
1890
1887
1881
1878
1873
1870
1868
1865
1866
1869
1872
1876
1877
1881
1884
1887
1893
1897
1899
1899
1899
1900
1902
1902
1898
1897
1892
1886
1883
1883
1883
1884
1884
1884
1883
1880
1881
1882
1883
1885
1888
1893
1895
1895
1895
1895
1894
1892
1890
1888
1886
1883
1883
1882
1881
1885
1892
1901
1910
1912
1913
1913
1910
1905
1899
1895
1892
1889
1886
1888
1887
1887
1889
1891
1893
1894
1896
1898
1897
1898
1903
1908
1913
1918
1924
1928
1929
1928
1925
1921
1917
1912
1910
1907
1906
1906
1908
1907
1907
1906
1907
1907
1909
1906
1909
1910
1911
1912
1914
1918
1920
1924
1930
1937
1939
1941
1942
1942
1940
1936
1930
1925
1921
1917
1917
1917
1918
1918
1920
1921
1922
1919
1918
1916
1911
1904
1899
1895
1894
1895
1900
1904
1908
1911
1911
1913
1913
1911
1913
1915
1917
1919
1929
1927
1930
1932
1935
1940
1944
1947
1949
1950
1949
1947
1946
1945
1942
1940
1941
1941
1938
1934
1934
1936
1939
1945
1951
1956
1956
1952
1953
1955
1956
1957
1957
1956
1956
1952
1950
1949
1948
1948
1949
1951
1953
1957
1959
1961
1963
1960
1957
1955
1954
1954
1956
1959
1961
1963
1965
1970
1973
1978
1983
1988
1989
1986
1979
1970
1960
1952
1949
1949
1952
1954
1957
1957
1956
1954
1953
1953
1952
1951
1950
1950
1949
1950
1953
1959
1964
1964
1965
1966
1968
1969
1972
1975
1975
1978
1980
1983
1987
1989
1989
1989
1985
1979
1975
1971
1969
1965
1961
1959
1956
1951
1952
1955
1956
1957
1955
1955
1953
1953
1954
1959
1963
1967
1970
1972
1973
1974
1974
1978
1978
1979
1979
1977
1974
1972
1970
1969
1968
1967
1968
1970
1970
1970
1972
1972
1972
1970
1968
1967
1969
1974
1983
1992
2000
2004
2004
2001
1996
1992
1986
1985
1983
1982
1983
1986
1985
1985
1984
1983
1983
1981
1979
1980
1980
1979
1981
1985
1988
1992
1996
1999
2002
2002
2003
2003
2003
2002
2001
2002
2003
2002
2001
2002
2005
2010
2015
2020
2024
2025
2027
2032
2037
2044
2056
2066
2078
2088
2096
2102
2106
2106
2108
2108
2106
2104
2104
2109
2118
2128
2142
2162
2182
2203
2224
2243
2258
2269
2279
2286
2287
2284
2278
2268
2256
2241
2226
2211
2195
2182
2168
2156
2146
2137
2133
2128
2124
2120
2119
2120
2118
2117
2114
2112
2107
2102
2098
2096
2092
2087
2081
2075
2069
2064
2064
2064
2064
2064
2062
2062
2059
2050
2038
2025
2009
1992
1975
1959
1945
1936
1931
1929
1928
1928
1930
1935
1939
1942
1947
1951
1955
1956
1956
1958
1959
1959
1963
1966
1967
1968
1968
1968
1966
1964
1963
1963
1966
1973
1980
1990
1996
2001
2001
1996
1987
1975
1963
1954
1947
1942
1938
1935
1933
1933
1934
1935
1937
1938
1945
1954
1969
1985
2003
2025
2050
2080
2112
2150
2188
2226
2266
2306
2345
2383
2413
2437
2453
2462
2468
2470
2462
2444
2412
2373
2324
2265
2200
2130
2052
1962
1867
1767
1660
1550
1435
1324
1221
1134
1070
1032
1018
1028
1058
1105
1165
1234
1310
1392
1477
1563
1648
1731
1806
1876
1934
1983
2021
2046
2064
2072
2076
2069
2058
2042
2027
2011
1998
1988
1981
1977
1975
1978
1981
1984
1988
1994
2001
2010
2021
2030
2037
2037
2035
2030
2028
2026
2028
2027
2024
2021
2020
2020
2019
2017
2017
2016
2018
2021
2023
2027
2029
2031
2033
2035
2033
2029
2029
2029
2030
2034
2038
2046
2052
2055
2056
2058
2059
2059
2059
2061
2062
2064
2066
2068
2071
2072
2073
2074
2072
2072
2076
2083
2091
2095
2098
2098
2096
2094
2094
2096
2099
2103
2104
2106
2104
2102
2100
2099
2098
2097
2097
2099
2101
2103
2106
2112
2115
2118
2122
2127
2130
2134
2140
2144
2144
2143
2144
2148
2155
2159
2161
2161
2157
2152
2146
2142
2141
2140
2141
2145
2149
2154
2158
2164
2169
2172
2173
2178
2181
2184
2188
2196
2201
2208
2214
2220
2225
2227
2229
2231
2230
2228
2223
2219
2217
2216
2213
2214
2216
2217
2222
2226
2233
2238
2246
2255
2261
2269
2276
2284
2291
2298
2304
2312
2317
2313
2324
2330
2336
2344
2352
2358
2361
2362
2361
2363
2364
2368
2373
2381
2390
2399
2407
2415
2422
2428
2434
2441
2444
2448
2450
2453
2457
2462
2470
2480
2491
2502
2514
2528
2539
2548
2560
2569
2578
2585
2593
2599
2602
2603
2604
2607
2614
2623
2632
2643
2652
2661
2670
2679
2686
2692
2697
2702
2706
2710
2714
2718
2722
2726
2733
2742
2751
2759
2766
2774
2780
2784
2791
2794
2794
2792
2786
2776
2766
2754
2745
2738
2733
2728
2723
2717
2710
2700
2686
2676
2664
2654
2645
2635
2623
2609
2591
2570
2549
2526
2502
2481
2459
2440
2423
2405
2386
2363
2338
2313
2290
2269
2254
2238
2224
2207
2190
2172
2155
2135
2119
2103
2086
2066
2044
2030
2020
2010
2004
1997
1991
1983
1976
1967
1957
1950
1944
1939
1934
1930
1923
1915
1905
1893
1881
1873
1867
1862
1860
1859
1860
1860
1861
1863
1864
1864
1861
1860
1857
1854
1852
1850
1851
1856
1864
1870
1874
1874
1873
1871
1867
1862
1856
1853
1848
1842
1836
1830
1826
1821
1820
1821
1822
1824
1826
1827
1830
1832
1835
1841
1846
1854
1863
1875
1884
1890
1892
1890
1884
1875
1864
1855
1846
1839
1836
1837
1837
1838
1839
1843
1846
1849
1853
1858
1861
1862
1861
1860
1858
1854
1851
1849
1851
1851
1852
1853
1855
1857
1861
1866
1870
1873
1878
1886
1892
1899
1904
1907
1906
1900
1894
1887
1880
1876
1873
1873
1875
1877
1882
1887
1890
1892
1894
1896
1895
1895
1894
1895
1895
1893
1895
1895
1898
1900
1904
1908
1910
1911
1913
1917
1919
1921
1922
1918
1912
1905
1898
1892
1884
1878
1874
1871
1869
1868
1870
1872
1876
1876
1880
1882
1886
1890
1892
1893
1895
1897
1899
1902
1906
1909
1915
1919
1920
1917
1909
1903
1898
1892
1886
1887
1886
1889
1889
1886
1885
1882
1879
1877
1873
1873
1874
1877
1881
1882
1886
1889
1892
1892
1893
1893
1893
1889
1888
1889
1890
1888
1886
1886
1886
1885
1884
1883
1881
1880
1880
1880
1882
1882
1884
1884
1886
1891
1896
1902
1907
1910
1912
1915
1915
1913
1913
1913
1913
1915
1918
1920
1921
1919
1918
1915
1910
1904
1898
1894
1891
1886
1884
1885
1887
1890
1893
1894
1894
1895
1898
1905
1910
1914
1916
1919
1922
1924
1925
1925
1922
1918
1917
1914
1912
1911
1909
1908
1907
1906
1904
1905
1902
1901
1900
1902
1907
1913
1918
1924
1926
1928
1928
1929
1930
1932
1931
1933
1931
1928
1924
1919
1914
1908
1907
1904
1902
1900
1901
1904
1909
1913
1917
1921
1923
1924
1925
1926
1928
1926
1924
1924
1924
1924
1926
1928
1930
1932
1934
1934
1932
1930
1929
1928
1926
1925
1924
1922
1921
1919
1922
1926
1929
1930
1932
1936
1940
1943
1947
1951
1955
1960
1963
1966
1966
1964
1957
1951
1944
1940
1937
1939
1938
1938
1939
1940
1941
1941
1939
1936
1933
1929
1924
1926
1925
1926
1929
1933
1939
1943
1947
1951
1956
1960
1964
1965
1965
1963
1961
1959
1956
1954
1950
1948
1943
1939
1934
1931
1928
1928
1928
1932
1937
1943
1949
1958
1963
1969
1975
1982
1985
1983
1989
1987
1983
1978
1973
1969
1964
1956
1948
1941
1935
1930
1927
1926
1927
1931
1938
1948
1956
1962
1968
1973
1976
1979
1981
1981
1980
1975
1973
1972
1973
1974
1972
1972
1972
1970
1972
1976
1982
1989
1993
1998
2001
2001
1998
1994
1990
1985
1979
1974
1968
1963
1962
1962
1964
1968
1973
1978
1983
1986
1989
1993
1994
1993
1989
1986
1982
1978
1978
1978
1984
1991
1995
1999
1999
1997
1995
1994
1997
1999
2000
1999
1997
1993
1987
1982
1977
1973
1970
1970
1971
1972
1972
1976
1979
1982
1986
1989
1991
1992
1993
1993
1992
1990
1990
1988
1988
1988
1990
1995
2000
2007
2013
2021
2029
2036
2042
2051
2057
2064
2073
2084
2093
2100
2106
2108
2108
2104
2098
2091
2082
2077
2074
2074
2076
2082
2095
2114
2139
2164
2192
2220
2242
2260
2274
2285
2291
2298
2301
2299
2294
2285
2274
2262
2247
2231
2214
2197
2181
2165
2152
2140
2128
2117
2107
2101
2097
2096
2098
2098
2098
2098
2099
2102
2104
2108
2110
2112
2108
2102
2099
2096
2093
2089
2086
2083
2078
2070
2059
2050
2043
2037
2030
2020
2009
1998
1990
1983
1978
1970
1962
1954
1944
1934
1930
1931
1930
1933
1936
1940
1947
1953
1960
1966
1971
1971
1970
1969
1965
1962
1960
1961
1963
1967
1969
1975
1978
1981
1983
1987
1989
1988
1985
1982
1978
1973
1967
1960
1953
1945
1941
1937
1931
1924
1922
1925
1929
1935
1945
1955
1968
1981
1999
2020
2045
2078
2114
2154
2195
2236
2277
2318
2356
2391
2420
2443
2460
2468
2474
2473
2467
2449
2421
2385
2338
2284
2225
2160
2090
2009
1921
1823
1719
1605
1488
1372
1265
1172
1098
1054
1034
1037
1064
1110
1168
1233
1303
1379
1456
1534
1615
1694
1768
1835
1894
1947
1990
2022
2046
2062
2071
2068
2064
2052
2037
2020
2003
1990
1980
1973
1969
1966
1965
1965
1968
1975
1982
1989
1998
2008
2015
2022
2027
2031
2037
2038
2039
2037
2034
2027
2022
2015
2010
2006
2005
2007
2010
2014
2017
2021
2022
2023
2028
2034
2042
2049
2053
2057
2059
2060
2057
2053
2047
2041
2037
2036
2039
2041
2044
2051
2056
2061
2065
2070
2072
2074
2076
2080
2080
2083
2086
2091
2091
2094
2093
2093
2091
2086
2082
2082
2086
2089
2096
2100
2101
2104
2106
2112
2114
2118
2120
2122
2122
2120
2117
2114
2112
2110
2111
2113
2116
2117
2120
2123
2124
2124
2125
2132
2140
2152
2166
2174
2177
2173
2166
2161
2155
2151
2145
2142
2141
2141
2140
2144
2149
2153
2159
2167
2174
2180
2187
2194
2200
2200
2204
2204
2204
2205
2206
2212
2214
2216
2219
2222
2222
2223
2221
2219
2219
2220
2224
2230
2235
2241
2248
2255
2261
2265
2270
2276
2280
2282
2282
2284
2286
2289
2292
2297
2300
2306
2314
2320
2323
2325
2326
2331
2334
2337
2340
2346
2350
2357
2364
2375
2384
2394
2405
2415
2423
2429
2436
2442
2451
2460
2470
2480
2489
2500
2506
2516
2524
2530
2538
2546
2554
2560
2565
2572
2583
2592
2601
2610
2619
2627
2636
2647
2656
2664
2670
2676
2683
2692
2701
2711
2718
2722
2730
2732
2736
2738
2742
2746
2747
2747
2746
2750
2750
2750
2750
2750
2746
2745
2745
2743
2744
2744
2744
2744
2745
2743
2741
2738
2733
2726
2719
2711
2701
2687
2672
2655
2636
2614
2593
2571
2548
2526
2506
2485
2464
2440
2418
2400
2377
2357
2341
2323
2306
2288
2271
2256
2239
2222
2204
2185
2169
2150
2134
2118
2099
2082
2064
2048
2033
2018
2005
1991
1980
1968
1958
1948
1937
1927
1920
1919
1919
1922
1921
1918
1914
1909
1902
1896
1890
1881
1874
1868
1863
1857
1852
1847
1843
1839
1841
1845
1852
1858
1865
1868
1867
1862
1852
1846
1841
1840
1841
1841
1839
1836
1830
1826
1822
1821
1821
1824
1833
1840
1845
1846
1843
1839
1833
1830
1829
1828
1829
1832
1833
1835
1835
1834
1831
1830
1828
1830
1834
1840
1847
1853
1855
1854
1853
1852
1849
1848
1846
1844
1842
1840
1840
1842
1841
1842
1845
1848
1850
1853
1855
1859
1864
1867
1870
1874
1875
1874
1874
1876
1876
1879
1879
1879
1877
1872
1868
1864
1859
1855
1855
1857
1861
1866
1870
1874
1877
1878
1879
1880
1880
1880
1880
1881
1880
1880
1879
1881
1883
1886
1890
1895
1897
1895
1896
1899
1903
1908
1916
1922
1926
1925
1922
1919
1916
1914
1912
1911
1912
1913
1913
1913
1911
1909
1908
1909
1911
1913
1917
1922
1924
1925
1922
1918
1911
1905
1900
1898
1896
1895
1898
1900
1903
1901
1899
1898
1898
1895
1890
1887
1883
1882
1882
1883
1884
1887
1891
1896
1900
1903
1906
1910
1916
1918
1919
1917
1916
1911
1907
1906
1905
1905
1906
1907
1909
1912
1916
1917
1918
1915
1911
1909
1906
1903
1902
1901
1899
1897
1896
1895
1895
1898
1902
1907
1911
1918
1924
1928
1930
1930
1930
1927
1931
1932
1929
1927
1925
1919
1918
1919
1917
1917
1919
1922
1924
1926
1928
1929
1931
1931
1931
1931
1932
1933
1932
1931
1930
1928
1925
1925
1926
1925
1924
1919
1918
1915
1916
1917
1921
1923
1927
1930
1930
1928
1928
1928
1928
1927
1926
1924
1924
1920
1921
1921
1921
1921
1919
1919
1917
1916
1914
1918
1919
1925
1934
1941
1946
1949
1948
1946
1940
1934
1928
1926
1927
1929
1935
1940
1945
1949
1954
1961
1967
1974
1979
1983
1983
1981
1976
1974
1972
1966
1961
1954
1946
1940
1934
1934
1936
1939
1942
1947
1950
1951
1953
1955
1955
1956
1956
1959
1958
1957
1957
1956
1956
1956
1956
1958
1961
1962
1964
1970
1974
1978
1982
1984
1982
1982
1981
1978
1975
1971
1970
1969
1968
1966
1967
1969
1969
1969
1969
1971
1973
1974
1975
1975
1976
1976
1977
1978
1979
1980
1979
1978
1974
1971
1968
1967
1966
1967
1967
1970
1975
1977
1978
1979
1974
1969
1964
1960
1961
1962
1970
1977
1983
1989
1990
1988
1986
1982
1978
1974
1972
1969
1968
1968
1969
1973
1981
1990
1996
2004
2010
2013
2011
2006
2001
1999
1999
2001
2003
2005
2006
2007
2007
2006
2005
2002
2002
2003
2004
2006
2008
2008
2008
2004
2001
1998
1994
1988
1982
1979
1980
1983
1988
1994
2001
2003
2004
2007
2007
2008
2009
2011
2011
2012
2013
2011
2007
2003
2000
1999
1995
1993
1993
1992
1994
1998
2005
2014
2023
2030
2034
2039
2041
2041
2043
2041
2041
2039
2038
2038
2041
2049
2058
2071
2082
2090
2097
2104
2110
2112
2112
2110
2108
2112
2116
2125
2137
2156
2176
2200
2221
2244
2266
2289
2308
2326
2341
2352
2355
2350
2338
2320
2298
2274
2250
2226
2204
2182
2165
2151
2138
2128
2123
2120
2119
2121
2122
2126
2129
2130
2131
2131
2132
2130
2131
2132
2132
2132
2128
2125
2118
2113
2107
2102
2096
2090
2084
2075
2063
2048
2034
2023
2008
1994
1986
1977
1971
1966
1962
1960
1956
1953
1951
1952
1955
1959
1963
1969
1972
1976
1975
1976
1976
1973
1970
1967
1963
1963
1964
1969
1972
1972
1974
1974
1977
1981
1984
1988
1989
1990
1991
1990
1984
1976
1968
1964
1963
1965
1969
1976
1982
1987
1991
1993
1993
1989
1990
1990
1994
1999
2009
2023
2038
2060
2087
2121
2156
2193
2234
2275
2314
2352
2389
2422
2449
2467
2480
2481
2479
2472
2454
2423
2382
2330
2272
2209
2139
2062
1975
1877
1768
1653
1533
1412
1290
1176
1077
1001
949
926
928
956
1005
1074
1155
1246
1341
1436
1532
1626
1717
1799
1872
1937
1991
2031
2061
2082
2091
2093
2093
2088
2080
2068
2056
2039
2025
2012
2000
1993
1990
1991
1997
2007
2020
2033
2044
2053
2058
2060
2060
2059
2056
2052
2052
2052
2047
2044
2044
2047
2053
2057
2063
2066
2066
2064
2060
2055
2052
2048
2050
2055
2061
2061
2062
2061
2059
2058
2058
2060
2064
2067
2070
2074
2076
2079
2082
2088
2092
2094
2094
2096
2096
2094
2094
2094
2096
2097
2098
2100
2102
2105
2109
2112
2114
2114
2110
2107
2104
2100
2097
2097
2096
2096
2098
2101
2103
2106
2108
2112
2116
2122
2131
2142
2153
2162
2170
2176
2180
2178
2176
2171
2166
2159
2155
2153
2149
2146
2144
2144
2146
2150
2155
2160
2164
2164
2163
2163
2165
2170
2178
2185
2190
2194
2200
2205
2211
2216
2223
2229
2233
2237
2238
2239
2236
2233
2231
2231
2229
2226
2224
2223
2222
2222
2221
2222
2222
2223
2229
2237
2251
2262
2274
2284
2291
2299
2300
2304
2306
2308
2306
2304
2304
2304
2305
2308
2314
2323
2335
2347
2359
2370
2382
2392
2400
2400
2403
2405
2409
2414
2420
2426
2430
2431
2434
2440
2450
2459
2470
2478
2488
2497
2508
2515
2522
2527
2534
2542
2549
2558
2569
2583
2594
2603
2614
2621
2628
2636
2643
2648
2654
2659
2667
2671
2676
2681
2686
2690
2693
2695
2698
2703
2706
2712
2719
2728
2740
2751
2761
2768
2772
2772
2771
2769
2764
2758
2751
2747
2746
2743
2746
2751
2755
2756
2759
2760
2758
2752
2747
2739
2729
2716
2704
2692
2679
2666
2650
2636
2621
2606
2592
2576
2557
2534
2512
2491
2469
2447
2425
2403
2383
2367
2351
2338
2322
2305
2290
2273
2255
2233
2209
2187
2164
2144
2126
2112
2098
2085
2074
2066
2056
2045
2039
2034
2026
2018
2007
2002
1994
1989
1980
1969
1957
1944
1930
1920
1916
1911
1909
1907
1904
1898
1892
1884
1878
1871
1867
1865
1862
1858
1854
1853
1852
1854
1855
1853
1852
1849
1849
1850
1852
1854
1856
1854
1852
1849
1848
1849
1850
1852
1853
1857
1858
1859
1862
1867
1871
1876
1879
1881
1880
1877
1874
1872
1870
1867
1863
1861
1857
1858
1861
1867
1868
1875
1878
1879
1879
1880
1881
1884
1882
1878
1876
1874
1874
1873
1876
1880
1882
1883
1883
1886
1888
1890
1890
1892
1891
1892
1896
1899
1899
1896
1891
1887
1881
1877
1873
1871
1869
1869
1870
1871
1871
1870
1869
1869
1872
1873
1876
1881
1885
1888
1890
1893
1893
1898
1906
1914
1918
1918
1915
1911
1905
1900
1895
1891
1890
1892
1896
1899
1906
1908
1913
1912
1909
1908
1906
1906
1905
1903
1901
1901
1904
1906
1909
1911
1910
1908
1906
1903
1900
1898
1898
1903
1908
1914
1918
1919
1922
1919
1917
1915
1914
1911
1910
1908
1906
1905
1905
1907
1910
1912
1913
1915
1915
1916
1914
1912
1908
1904
1903
1903
1903
1903
1903
1906
1910
1912
1912
1911
1908
1903
1899
1896
1894
1890
1887
1889
1893
1895
1896
1897
1897
1898
1899
1902
1905
1908
1911
1916
1918
1918
1914
1913
1910
1905
1902
1899
1897
1898
1903
1909
1910
1912
1915
1917
1922
1926
1930
1930
1927
1925
1921
1914
1906
1901
1896
1895
1893
1892
1892
1894
1896
1900
1905
1914
1918
1918
1915
1914
1912
1912
1911
1913
1916
1919
1923
1928
1933
1933
1930
1928
1924
1917
1909
1905
1901
1899
1899
1903
1906
1908
1908
1913
1918
1923
1929
1934
1936
1936
1937
1935
1932
1927
1922
1919
1915
1912
1913
1914
1914
1916
1921
1925
1929
1928
1929
1928
1927
1924
1919
1915
1914
1915
1917
1917
1915
1915
1915
1919
1921
1924
1926
1932
1936
1935
1936
1936
1938
1937
1939
1940
1943
1942
1940
1943
1942
1942
1942
1945
1946
1947
1948
1949
1950
1949
1948
1949
1950
1950
1949
1948
1945
1940
1939
1937
1936
1936
1938
1940
1942
1946
1951
1957
1963
1969
1970
1969
1967
1964
1959
1956
1950
1946
1943
1941
1941
1940
1943
1949
1955
1959
1959
1956
1951
1946
1944
1945
1947
1949
1949
1950
1950
1949
1950
1951
1953
1953
1956
1961
1963
1964
1967
1970
1974
1977
1980
1983
1983
1982
1979
1973
1967
1964
1961
1961
1962
1965
1970
1979
1986
1990
1992
1991
1987
1981
1973
1969
1965
1961
1957
1954
1951
1948
1950
1954
1957
1959
1963
1969
1974
1979
1985
1993
1998
2005
2010
2016
2020
2023
2026
2032
2037
2040
2043
2045
2047
2052
2053
2057
2059
2059
2058
2057
2054
2052
2051
2054
2059
2068
2082
2100
2119
2141
2164
2192
2218
2238
2254
2266
2274
2275
2272
2267
2257
2243
2228
2215
2202
2188
2173
2157
2140
2123
2110
2101
2093
2085
2078
2077
2076
2074
2074
2075
2074
2072
2068
2066
2060
2056
2055
2050
2047
2044
2045
2048
2051
2056
2059
2063
2063
2062
2063
2062
2059
2054
2046
2036
2025
2011
1993
1971
1949
1930
1916
1907
1903
1901
1904
1911
1919
1928
1932
1935
1944
1935
1934
1935
1937
1937
1941
1946
1950
1954
1957
1961
1962
1963
1961
1958
1956
1953
1951
1950
1949
1948
1948
1944
1937
1930
1923
1919
1915
1914
1912
1911
1913
1915
1919
1926
1938
1953
1972
1990
2009
2028
2050
2076
2102
2131
2164
2199
2235
2271
2306
2340
2370
2396
2417
2429
2433
2435
2430
2418
2394
2360
2319
2272
2218
2156
2087
2010
1924
1829
1725
1616
1499
1381
1273
1178
1102
1049
1019
1018
1040
1081
1139
1209
1284
1361
1443
1528
1614
1698
1778
1852
1916
1970
2012
2044
2069
2087
2095
2096
2088
2073
2055
2033
2012
1995
1978
1963
1950
1941
1940
1943
1948
1955
1959
1966
1973
1980
1986
1995
2003
2011
2018
2023
2025
2026
2027
2026
2025
2022
2018
2014
2010
2005
2001
2001
2002
2002
2005
2007
2012
2018
2020
2022
2022
2022
2023
2029
2034
2039
2044
2050
2053
2056
2056
2058
2060
2060
2062
2063
2064
2062
2061
2061
2060
2057
2056
2056
2053
2050
2049
2049
2051
2054
2058
2066
2072
2080
2086
2094
2100
2103
2102
2101
2097
2092
2089
2089
2089
2090
2094
2096
2100
2098
2097
2098
2100
2101
2102
2104
2105
2104
2102
2100
2099
2095
2095
2096
2097
2099
2101
2104
2109
2112
2116
2119
2124
2129
2137
2148
2158
2167
2176
2180
2185
2184
2183
2183
2181
2180
2181
2180
2180
2177
2171
2171
2173
2176
2182
2188
2193
2197
2202
2204
2206
2208
2208
2210
2210
2214
2220
2228
2238
2248
2261
2275
2288
2300
2309
2317
2321
2322
2322
2318
2312
2308
2304
2301
2301
2300
2301
2305
2310
2320
2332
2345
2353
2358
2359
2361
2359
2361
2364
2371
2376
2382
2390
2401
2413
2424
2435
2446
2454
2464
2471
2482
2490
2500
2510
2519
2527
2535
2540
2546
2551
2557
2565
2572
2578
2584
2590
2598
2608
2619
2630
2641
2649
2653
2656
2661
2666
2670
2678
2681
2684
2688
2692
2693
2693
2692
2690
2686
2683
2680
2680
2683
2685
2689
2692
2697
2701
2704
2706
2705
2703
2696
2689
2678
2667
2654
2641
2629
2614
2599
2582
2568
2551
2534
2518
2502
2484
2466
2447
2430
2412
2394
2378
2362
2346
2330
2314
2297
2281
2265
2248
2230
2213
2195
2180
2167
2153
2138
2123
2103
2080
2056
2033
2016
2001
1987
1973
1960
1952
1943
1937
1933
1929
1928
1927
1927
1926
1918
1910
1904
1896
1886
1876
1868
1862
1860
1857
1857
1859
1861
1865
1870
1873
1873
1872
1873
1871
1866
1858
1848
1839
1830
1822
1819
1817
1817
1818
1821
1824
1828
1828
1831
1833
1836
1839
1839
1838
1835
1832
1830
1830
1833
1834
1838
1840
1839
1839
1840
1841
1838
1836
1836
1834
1833
1835
1835
1837
1837
1839
1844
1846
1850
1850
1852
1852
1853
1855
1858
1860
1862
1865
1868
1871
1871
1868
1864
1858
1855
1853
1854
1854
1853
1853
1856
1859
1860
1862
1868
1872
1874
1876
1879
1884
1886
1890
1897
1904
1909
1912
1914
1915
1910
1907
1904
1898
1894
1893
1894
1894
1890
1883
1878
1874
1870
1871
1872
1874
1875
1877
1881
1881
1882
1885
1890
1893
1894
1894
1895
1896
1898
1902
1908
1911
1910
1911
1910
1906
1899
1890
1882
1874
1869
1864
1865
1868
1872
1878
1883
1887
1892
1894
1897
1898
1899
1898
1896
1893
1890
1886
1883
1882
1882
1884
1889
1891
1892
1893
1896
1900
1902
1905
1907
1907
1907
1904
1901
1897
1890
1884
1882
1877
1873
1869
1867
1869
1869
1874
1879
1884
1890
1896
1905
1908
1910
1908
1907
1901
1896
1893
1892
1892
1892
1894
1896
1898
1899
1900
1899
1896
1895
1893
1894
1893
1890
1889
1889
1889
1889
1893
1897
1902
1904
1906
1909
1910
1910
1908
1906
1906
1905
1907
1908
1909
1907
1908
1908
1909
1909
1910
1913
1916
1914
1911
1904
1898
1895
1893
1895
1898
1900
1902
1906
1908
1907
1907
1907
1906
1904
1901
1902
1903
1903
1904
1905
1906
1907
1908
1907
1907
1907
1907
1911
1914
1917
1919
1923
1928
1931
1936
1939
1939
1937
1935
1936
1935
1932
1932
1934
1935
1934
1937
1940
1945
1948
1951
1951
1950
1945
1940
1935
1929
1924
1922
1922
1922
1925
1929
1935
1941
1945
1945
1945
1944
1942
1942
1941
1940
1939
1938
1938
1935
1933
1929
1925
1921
1920
1922
1927
1929
1931
1933
1935
1939
1943
1948
1953
1958
1963
1968
1974
1978
1977
1974
1970
1963
1953
1943
1935
1929
1926
1926
1931
1937
1942
1948
1954
1960
1964
1968
1974
1976
1980
1981
1979
1976
1973
1970
1967
1965
1963
1966
1967
1965
1963
1961
1964
1967
1969
1971
1972
1971
1971
1970
1974
1975
1973
1970
1964
1959
1954
1951
1949
1947
1945
1946
1944
1943
1943
1944
1947
1949
1954
1958
1965
1969
1972
1978
1982
1989
1990
1991
1993
1994
1994
1995
1993
1992
1990
1990
1990
1986
1979
1972
1969
1964
1961
1959
1960
1962
1967
1970
1975
1982
1991
2001
2010
2016
2017
2013
2009
2001
1993
1987
1982
1980
1981
1983
1988
1992
1996
1999
2000
2002
2004
2006
2009
2012
2014
2018
2020
2021
2018
2016
2018
2020
2021
2024
2027
2032
2035
2037
2041
2050
2058
2064
2068
2068
2067
2066
2070
2078
2088
2098
2112
2125
2140
2157
2178
2198
2217
2237
2256
2269
2276
2277
2275
2270
2261
2250
2237
2224
2209
2194
2180
2166
2152
2141
2133
2124
2119
2117
2120
2122
2121
2121
2118
2116
2113
2107
2104
2099
2096
2095
2094
2093
2089
2088
2086
2085
2081
2078
2075
2074
2070
2066
2061
2056
2052
2048
2044
2040
2038
2021
2011
2003
1993
1984
1977
1969
1958
1950
1944
1939
1935
1932
1932
1933
1935
1936
1938
1939
1941
1946
1950
1952
1953
1956
1963
1969
1975
1981
1988
1992
1997
2000
2003
2003
2001
1999
1996
1990
1983
1975
1966
1956
1943
1934
1927
1924
1924
1928
1934
1939
1944
1951
1960
1971
1983
1999
2020
2043
2074
2112
2159
2209
2264
2319
2373
2423
2466
2501
2526
2541
2548
2550
2548
2539
2523
2498
2467
2422
2372
2311
2235
2149
2053
1949
1845
1737
1626
1512
1403
1305
1224
1168
1138
1134
1153
1189
1241
1299
1363
1434
1510
1588
1668
1745
1821
1890
1951
2005
2047
2077
2092
2101
2101
2097
2084
2070
2052
2032
2014
1997
1985
1978
1972
1969
1969
1968
1963
1959
1959
1960
1964
1971
1978
1983
1986
1990
1995
2001
2007
2014
2020
2023
2021
2018
2017
2017
2018
2019
2021
2033
2026
2030
2034
2035
2036
2036
2035
2035
2036
2039
2045
2048
2047
2045
2044
2043
2043
2045
2050
2054
2056
2058
2059
2059
2056
2056
2052
2048
2045
2040
2037
2033
2028
2028
2030
2034
2039
2048
2054
2064
2071
2080
2089
2098
2103
2104
2103
2098
2096
2093
2096
2094
2094
2096
2100
2102
2103
2104
2106
2112
2115
2120
2120
2120
2118
2112
2106
2097
2090
2084
2080
2080
2081
2085
2091
2102
2110
2118
2128
2135
2142
2149
2156
2160
2163
2165
2167
2168
2168
2165
2161
2157
2152
2150
2150
2150
2152
2154
2156
2159
2160
2164
2168
2172
2180
2189
2196
2204
2210
2214
2220
2224
2226
2230
2233
2233
2231
2232
2232
2234
2235
2237
2243
2249
2257
2265
2272
2281
2287
2292
2297
2298
2297
2294
2294
2292
2292
2294
2300
2309
2320
2331
2342
2349
2355
2363
2373
2384
2396
2409
2419
2426
2435
2442
2453
2465
2476
2487
2500
2511
2520
2526
2531
2534
2533
2535
2539
2544
2550
2557
2568
2578
2584
2587
2590
2591
2593
2597
2605
2613
2621
2629
2636
2645
2653
2661
2668
2675
2680
2685
2691
2697
2697
2695
2694
2694
2695
2702
2710
2716
2716
2713
2709
2704
2699
2693
2686
2678
2670
2663
2658
2656
2652
2646
2638
2631
2622
2612
2606
2597
2588
2580
2570
2558
2543
2520
2500
2477
2452
2428
2405
2382
2364
2348
2332
2316
2299
2284
2270
2253
2234
2220
2208
2200
2195
2187
2176
2163
2148
2131
2116
2100
2080
2062
2039
2015
1991
1969
1951
1939
1931
1925
1925
1919
1924
1924
1924
1923
1919
1916
1913
1914
1915
1916
1917
1919
1919
1919
1912
1904
1893
1880
1869
1860
1852
1848
1846
1846
1845
1844
1841
1838
1837
1838
1841
1846
1850
1853
1860
1865
1867
1871
1873
1872
1868
1862
1859
1855
1854
1851
1849
1849
1849
1853
1857
1859
1861
1863
1865
1867
1867
1869
1868
1868
1867
1869
1870
1871
1870
1867
1864
1861
1858
1857
1858
1862
1864
1868
1870
1873
1877
1881
1881
1881
1876
1873
1870
1867
1863
1862
1866
1871
1877
1887
1896
1901
1902
1902
1901
1897
1891
1884
1880
1878
1873
1872
1874
1877
1879
1882
1883
1886
1887
1890
1893
1895
1896
1897
1901
1904
1908
1911
1908
1902
1895
1887
1883
1878
1874
1872
1875
1876
1879
1880
1883
1883
1886
1889
1895
1901
1911
1919
1932
1940
1944
1948
1950
1950
1944
1934
1924
1909
1898
1888
1881
1878
1877
1877
1878
1879
1881
1884
1890
1896
1903
1909
1913
1913
1912
1912
1913
1916
1919
1924
1925
1917
1919
1914
1910
1907
1902
1899
1897
1896
1895
1896
1897
1895
1896
1895
1896
1897
1897
1898
1898
1900
1901
1906
1911
1919
1926
1931
1938
1941
1944
1943
1940
1935
1925
1915
1907
1901
1898
1899
1899
1896
1894
1893
1896
1897
1899
1902
1903
1903
1902
1899
1898
1899
1900
1902
1907
1910
1911
1914
1917
1921
1921
1919
1919
1919
1919
1922
1925
1928
1930
1932
1934
1933
1930
1928
1924
1919
1915
1909
1903
1896
1888
1884
1884
1887
1892
1896
1904
1911
1921
1931
1941
1945
1943
1938
1931
1924
1916
1908
1905
1902
1901
1902
1906
1913
1917
1924
1928
1929
1928
1928
1929
1928
1927
1925
1926
1925
1925
1924
1925
1924
1926
1930
1936
1943
1949
1952
1954
1953
1950
1948
1945
1941
1934
1929
1927
1929
1932
1935
1939
1940
1939
1938
1942
1942
1941
1940
1938
1935
1934
1933
1935
1935
1937
1938
1939
1941
1940
1942
1944
1948
1952
1958
1963
1966
1965
1963
1959
1956
1956
1957
1959
1962
1963
1964
1963
1961
1956
1953
1952
1952
1956
1961
1970
1978
1983
1986
1987
1987
1988
1987
1984
1976
1972
1965
1962
1960
1959
1957
1955
1955
1953
1954
1954
1955
1955
1958
1960
1961
1960
1961
1961
1960
1961
1961
1964
1967
1971
1975
1981
1986
1991
1994
1994
1993
1988
1982
1978
1972
1970
1968
1968
1968
1964
1962
1961
1960
1958
1956
1955
1954
1955
1958
1964
1970
1975
1978
1985
1988
1989
1988
1985
1982
1983
1982
1981
1978
1974
1967
1963
1958
1956
1956
1958
1963
1966
1973
1982
1989
1993
1994
1993
1993
1991
1987
1983
1978
1972
1968
1969
1970
1974
1981
1991
1998
2005
2009
2013
2017
2020
2020
2017
2013
2007
2004
2003
2002
2002
2002
2007
2015
2023
2030
2033
2031
2025
2017
2010
2005
1997
1991
1983
1977
1969
1965
1964
1966
1969
1972
1978
1982
1983
1985
1987
1992
1994
1997
1998
1998
1998
1998
1998
1998
1997
1998
1999
1999
1994
1990
1988
1989
1987
1986
1989
1989
1990
1992
1996
2002
2010
2018
2030
2037
2042
2044
2043
2046
2052
2056
2061
2064
2064
2064
2068
2072
2080
2087
2094
2098
2097
2096
2098
2096
2094
2094
2100
2104
2112
2122
2139
2159
2181
2206
2233
2256
2276
2294
2309
2317
2319
2316
2311
2304
2292
2276
2255
2234
2212
2190
2170
2151
2137
2126
2120
2117
2115
2115
2115
2116
2116
2117
2117
2117
2118
2114
2113
2112
2112
2112
2114
2117
2120
2122
2126
2126
2124
2123
2122
2118
2112
2101
2091
2078
2064
2047
2031
2014
1995
1976
1962
1949
1939
1934
1935
1938
1942
1946
1950
1955
1958
1961
1966
1968
1969
1970
1973
1978
1982
1987
1995
2004
2011
2017
2023
2026
2023
2013
2003
1990
1977
1967
1960
1953
1947
1945
1947
1949
1951
1954
1958
1961
1962
1963
1965
1967
1968
1970
1975
1978
1981
1988
1997
2007
2019
2031
2050
2068
2086
2107
2132
2164
2199
2241
2287
2336
2385
2433
2474
2507
2533
2549
2558
2558
2551
2533
2507
2466
2412
2348
2280
2205
2126
2043
1957
1866
1769
1670
1566
1461
1360
1271
1200
1152
1126
1126
1146
1182
1229
1284
1346
1417
1490
1569
1649
1729
1804
1872
1935
1985
2024
2051
2066
2068
2063
2052
2035
2015
1993
1973
1957
1946
1938
1934
1936
1941
1949
1959
1970
1981
1990
2000
2010
2018
2022
2024
2024
2025
2022
2021
2022
2025
2028
2034
2039
2046
2055
2064
2068
2068
2065
2058
2050
2037
2024
2013
2005
2000
1998
1995
1997
1999
2001
2003
2004
2006
2012
2019
2027
2035
2043
2054
2064
2074
2078
2081
2081
2078
2073
2068
2066
2065
2067
2072
2077
2084
2093
2098
2099
2096
2090
2086
2083
2077
2070
2066
2063
2063
2064
2066
2069
2071
2072
2076
2078
2082
2083
2084
2085
2088
2089
2092
2098
2105
2113
2122
2133
2140
2142
2140
2138
2138
2136
2139
2141
2144
2145
2146
2150
2153
2152
2148
2141
2134
2128
2125
2125
2127
2130
2136
2144
2151
2157
2163
2168
2171
2172
2174
2176
2177
2180
2184
2190
2197
2200
2204
2210
2214
2215
2219
2222
2225
2226
2230
2235
2242
2249
2253
2256
2252
2246
2240
2234
2230
2232
2233
2236
2241
2246
2254
2266
2275
2284
2292
2299
2310
2320
2329
2340
2349
2358
2365
2372
2375
2378
2379
2381
2382
2386
2388
2390
2394
2400
2408
2417
2428
2440
2452
2466
2482
2496
2509
2519
2527
2533
2536
2540
2540
2544
2550
2560
2571
2584
2596
2610
2622
2633
2644
2654
2658
2662
2660
2654
2651
2648
2649
2650
2651
2652
2654
2657
2661
2666
2673
2683
2692
2701
2711
2720
2725
2728
2735
2736
2728
2737
2738
2736
2734
2728
2722
2715
2707
2697
2688
2681
2673
2658
2654
2644
2634
2622
2609
2596
2581
2562
2543
2526
2508
2489
2469
2450
2436
2420
2406
2392
2378
2362
2347
2332
2316
2295
2276
2257
2237
2220
2204
2188
2174
2159
2146
2131
2115
2096
2080
2068
2056
2041
2028
2015
2005
1994
1986
1977
1969
1961
1952
1945
1934
1926
1916
1910
1903
1898
1897
1897
1896
1894
1892
1888
1884
1882
1881
1879
1875
1869
1863
1857
1849
1842
1839
1838
1841
1844
1848
1854
1859
1860
1863
1865
1864
1862
1862
1861
1856
1850
1846
1846
1844
1840
1838
1837
1836
1834
1835
1838
1841
1845
1849
1858
1866
1871
1878
1880
1880
1877
1870
1865
1859
1851
1846
1839
1835
1833
1832
1833
1838
1842
1849
1858
1867
1872
1877
1881
1883
1882
1882
1884
1882
1880
1879
1878
1876
1874
1873
1873
1872
1874
1874
1874
1877
1880
1882
1883
1881
1878
1876
1876
1882
1886
1893
1903
1911
1918
1921
1925
1924
1918
1910
1902
1895
1888
1883
1876
1872
1870
1867
1866
1865
1866
1865
1870
1875
1880
1887
1894
1901
1906
1912
1915
1917
1919
1921
1923
1924
1924
1924
1923
1921
1921
1919
1921
1923
1921
1919
1919
1919
1919
1918
1915
1909
1904
1898
1893
1887
1886
1889
1894
1898
1899
1900
1903
1906
1911
1918
1926
1933
1936
1940
1940
1940
1936
1932
1925
1918
1914
1912
1911
1908
1905
1902
1900
1897
1894
1893
1893
1894
1894
1893
1892
1890
1889
1890
1892
1895
1898
1901
1908
1916
1922
1928
1932
1934
1931
1928
1926
1922
1916
1913
1907
1904
1899
1894
1890
1886
1885
1888
1890
1894
1897
1898
1899
1903
1908
1917
1925
1931
1936
1938
1939
1935
1927
1921
1915
1909
1903
1898
1895
1892
1890
1889
1891
1894
1897
1901
1908
1913
1917
1925
1933
1939
1946
1950
1953
1951
1946
1942
1940
1938
1938
1940
1940
1937
1937
1938
1940
1938
1934
1930
1926
1924
1919
1915
1915
1914
1916
1917
1921
1924
1925
1927
1926
1926
1924
1923
1921
1918
1916
1914
1914
1916
1919
1921
1926
1930
1934
1939
1943
1946
1948
1950
1951
1949
1949
1948
1954
1957
1960
1961
1958
1952
1947
1946
1949
1952
1952
1951
1952
1953
1954
1955
1955
1956
1957
1956
1956
1954
1952
1950
1946
1940
1934
1932
1941
1932
1930
1930
1931
1931
1933
1936
1942
1949
1955
1961
1967
1969
1968
1970
1971
1972
1973
1973
1974
1977
1977
1975
1972
1966
1961
1956
1955
1954
1951
1950
1950
1951
1952
1953
1955
1958
1958
1957
1959
1964
1968
1974
1977
1977
1976
1975
1972
1970
1972
1977
1985
1993
1999
2002
2005
2004
1998
1991
1986
1982
1978
1973
1971
1969
1963
1957
1953
1950
1949
1954
1960
1967
1972
1980
1989
1994
1999
2003
2006
2006
2005
2001
1996
1988
1980
1975
1971
1971
1973
1975
1978
1981
1983
1985
1988
1994
1999
2006
2011
2013
2014
2013
2013
2010
2007
2005
2005
2002
1998
1995
1993
1992
1997
2000
2002
2000
1995
1989
1983
1981
1978
1978
1979
1984
1992
2000
2009
2017
2023
2030
2037
2038
2040
2040
2037
2030
2021
2014
2007
2003
2000
1998
1995
1991
1988
1986
1986
1990
1992
1994
1997
1998
2002
2005
2007
2006
2006
2008
2011
2016
2018
2023
2025
2026
2024
2021
2019
2018
2017
2017
2016
2014
2009
2006
2004
2002
2001
2001
2002
2002
2002
2003
2004
2008
2012
2015
2020
2023
2025
2027
2029
2031
2031
2036
2038
2039
2041
2045
2053
2057
2057
2056
2056
2056
2057
2061
2068
2076
2082
2088
2091
2094
2096
2098
2102
2104
2104
2104
2106
2106
2108
2110
2117
2125
2138
2153
2172
2190
2208
2228
2248
2269
2287
2301
2313
2319
2321
2320
2314
2304
2288
2270
2255
2237
2218
2201
2184
2170
2158
2148
2140
2137
2136
2136
2142
2147
2150
2151
2150
2147
2141
2134
2127
2118
2112
2106
2104
2102
2101
2098
2099
2101
2103
2105
2110
2114
2119
2120
2120
2112
2097
2078
2057
2034
2013
1993
1973
1954
1939
1930
1924
1922
1922
1925
1930
1934
1939
1944
1953
1962
1971
1979
1987
1993
1997
2002
2005
2004
2002
1998
1995
1993
1995
1997
1999
2000
1999
1999
1998
1997
1992
1985
1974
1965
1955
1948
1943
1940
1939
1941
1945
1948
1952
1956
1962
1970
1979
1990
2004
2015
2029
2046
2066
2088
2114
2147
2184
2226
2268
2312
2357
2399
2436
2468
2490
2504
2508
2511
2510
2501
2485
2455
2413
2359
2294
2221
2142
2056
1966
1869
1768
1664
1558
1451
1347
1250
1165
1099
1059
1046
1057
1085
1130
1184
1244
1314
1388
1467
1547
1625
1703
1778
1848
1913
1971
2015
2050
2072
2085
2088
2086
2077
2066
2049
2030
2014
2002
1992
1987
1984
1985
1986
1989
1994
2002
2010
2014
2015
2017
2020
2028
2035
2043
2049
2049
2045
2044
2042
2039
2035
2031
2031
2030
2029
2031
2034
2036
2038
2041
2041
2041
2041
2041
2039
2039
2039
2039
2040
2041
2043
2047
2051
2055
2060
2068
2075
2081
2087
2092
2094
2092
2091
2091
2090
2085
2083
2081
2082
2080
2075
2070
2062
2058
2057
2060
2066
2070
2077
2085
2094
2102
2110
2119
2128
2135
2140
2145
2146
2144
2142
2140
2134
2127
2120
2116
2112
2107
2100
2091
2084
2077
2074
2077
2082
2090
2097
2103
2107
2112
2118
2122
2126
2128
2128
2128
2128
2126
2126
2129
2132
2137
2143
2150
2159
2165
2173
2179
2182
2185
2186
2186
2186
2188
2187
2190
2192
2190
2188
2186
2189
2193
2197
2204
2208
2214
2221
2229
2236
2240
2242
2244
2242
2241
2241
2243
2245
2247
2251
2256
2260
2262
2266
2269
2274
2278
2285
2292
2301
2310
2324
2338
2350
2356
2358
2357
2356
2354
2354
2353
2355
2356
2357
2359
2363
2369
2376
2382
2390
2401
2413
2428
2444
2460
2473
2485
2495
2505
2512
2520
2529
2536
2542
2549
2554
2560
2565
2574
2582
2591
2598
2606
2612
2617
2622
2628
2635
2639
2644
2647
2653
2659
2664
2672
2679
2687
2696
2707
2719
2728
2736
2744
2748
2748
2747
2746
2746
2748
2749
2747
2745
2742
2740
2738
2734
2729
2721
2712
2702
2690
2677
2669
2662
2659
2655
2650
2643
2631
2617
2604
2590
2575
2560
2544
2528
2510
2493
2474
2457
2441
2426
2411
2392
2372
2350
2328
2308
2284
2261
2240
2220
2201
2185
2170
2156
2142
2130
2120
2112
2100
2091
2081
2068
2056
2041
2026
2009
1993
1976
1962
1949
1935
1924
1915
1908
1901
1897
1897
1899
1903
1906
1908
1905
1900
1894
1891
1892
1890
1891
1890
1892
1893
1893
1893
1891
1888
1884
1880
1875
1870
1862
1855
1845
1836
1833
1836
1839
1844
1847
1849
1853
1856
1860
1863
1864
1862
1859
1856
1850
1849
1849
1850
1852
1851
1855
1858
1862
1861
1858
1856
1854
1851
1850
1853
1856
1861
1863
1865
1864
1862
1861
1862
1865
1870
1876
1882
1884
1890
1894
1895
1892
1887
1882
1877
1872
1865
1860
1854
1849
1844
1843
1846
1852
1863
1872
1883
1893
1902
1910
1916
1920
1922
1921
1915
1914
1910
1905
1900
1893
1886
1882
1878
1878
1877
1878
1881
1885
1889
1895
1898
1899
1895
1891
1888
1891
1894
1897
1897
1895
1893
1891
1891
1892
1894
1895
1898
1900
1903
1906
1906
1906
1905
1906
1909
1911
1914
1916
1917
1918
1917
1917
1923
1926
1927
1924
1921
1914
1908
1906
1902
1899
1895
1892
1891
1891
1892
1893
1896
1897
1898
1899
1899
1898
1896
1896
1898
1902
1904
1908
1911
1913
1910
1907
1906
1905
1902
1901
1903
1905
1903
1899
1898
1895
1895
1893
1895
1900
1903
1907
1911
1913
1917
1921
1926
1928
1926
1923
1914
1904
1899
1898
1899
1902
1906
1909
1910
1910
1908
1906
1904
1902
1901
1900
1900
1899
1900
1900
1900
1900
1901
1905
1910
1915
1919
1924
1929
1932
1933
1933
1931
1927
1918
1913
1909
1908
1910
1915
1918
1918
1914
1910
1906
1905
1902
1901
1898
1897
1902
1895
1898
1901
1902
1906
1910
1915
1919
1926
1931
1933
1934
1934
1931
1925
1917
1911
1908
1906
1907
1907
1910
1912
1915
1919
1922
1922
1921
1922
1924
1927
1930
1934
1938
1941
1943
1946
1950
1951
1953
1956
1960
1960
1959
1955
1949
1941
1933
1927
1926
1923
1919
1916
1914
1912
1912
1912
1915
1918
1923
1928
1932
1937
1941
1944
1948
1950
1948
1949
1951
1954
1960
1963
1965
1964
1963
1962
1965
1965
1966
1966
1966
1965
1963
1960
1954
1947
1936
1925
1915
1906
1898
1894
1894
1899
1907
1916
1928
1936
1942
1944
1946
1948
1953
1955
1958
1957
1952
1948
1944
1936
1928
1919
1917
1916
1919
1924
1929
1932
1938
1944
1949
1953
1956
1957
1959
1958
1954
1950
1946
1943
1942
1939
1939
1942
1944
1947
1947
1947
1945
1944
1945
1948
1950
1955
1959
1962
1966
1969
1974
1975
1977
1976
1975
1974
1971
1969
1967
1963
1959
1955
1954
1955
1953
1951
1951
1949
1949
1951
1954
1958
1959
1959
1959
1957
1959
1960
1965
1970
1974
1978
1981
1985
1986
1987
1987
1986
1983
1979
1977
1974
1975
1974
1975
1978
1980
1983
1985
1989
1991
1994
1996
1998
1997
1999
2000
1996
1990
1986
1983
1978
1974
1972
1973
1974
1978
1979
1978
1977
1977
1977
1979
1980
1979
1979
1979
1980
1983
1987
1990
1992
1993
1996
1997
1994
1991
1986
1987
1987
1991
1995
1999
2001
2003
2002
1999
1993
1988
1988
1988
1988
1988
1989
1988
1988
1988
1990
1997
2001
2004
2006
2006
2007
2007
2008
2012
2012
2013
2016
2020
2022
2023
2027
2031
2036
2040
2044
2049
2054
2058
2059
2062
2065
2068
2074
2079
2082
2084
2084
2086
2090
2093
2096
2102
2108
2116
2127
2140
2159
2179
2200
2221
2242
2263
2283
2301
2315
2321
2324
2324
2321
2311
2293
2272
2247
2222
2198
2179
2160
2145
2132
2124
2118
2116
2121
2129
2139
2146
2152
2153
2152
2148
2145
2143
2141
2137
2132
2130
2127
2123
2120
2116
2110
2103
2094
2087
2077
2070
2062
2053
2039
2026
2012
1999
1988
1975
1964
1958
1953
1949
1946
1946
1945
1945
1947
1955
1960
1964
1969
1975
1977
1974
1971
1967
1961
1956
1955
1954
1954
1959
1967
1974
1979
1983
1982
1978
1975
1973
1975
1978
1981
1983
1985
1983
1981
1978
1975
1969
1965
1960
1958
1958
1960
1964
1970
1980
1988
1994
2000
2007
2012
2019
2029
2044
2064
2089
2123
2161
2205
2250
2295
2343
2387
2426
2456
2475
2486
2488
2484
2477
2464
2446
2417
2378
2332
2279
2220
2156
2082
1998
1905
1804
1696
1585
1468
1350
1237
1135
1050
989
957
954
975
1017
1079
1152
1234
1326
1423
1520
1615
1704
1785
1858
1921
1972
2011
2037
2057
2066
2068
2064
2056
2049
2039
2029
2018
2006
1995
1984
1971
1969
1967
1966
1969
1977
1987
1999
2007
2015
2020
2025
2031
2040
2044
2043
2037
2027
2019
2014
2013
2018
2021
2027
2032
2039
2046
2052
2054
2054
2051
2044
2041
2040
2040
2041
2047
2050
2052
2052
2053
2055
2057
2058
2059
2058
2056
2054
2052
2053
2056
2058
2062
2067
2071
2077
2083
2088
2092
2092
2093
2094
2094
2095
2097
2098
2100
2102
2105
2112
2119
2122
2120
2116
2109
2101
2098
2100
2103
2105
2108
2112
2114
2119
2122
2127
2130
2132
2135
2137
2136
2132
2128
2124
2123
2121
2122
2128
2135
2142
2147
2151
2152
2155
2156
2158
2157
2154
2155
