2672
2652
2602
2558
2528
2520
2533
2558
2578
2588
2596
2609
2634
2666
2704
2741
2776
2807
2838
2870
2892
2906
2908
2891
2861
2814
2746
2673
2598
2520
2440
2364
2296
2246
2216
2212
2223
2246
2277
2312
2340
2360
2381
2401
2415
2417
2397
2356
2295
2220
2148
2090
2056
2045
2053
2062
2068
2064
2052
2030
2005
1981
1966
1954
1954
1963
1982
2010
2042
2074
2102
2122
2130
2120
2088
2031
1967
1905
1856
1820
1798
1779
1764
1752
1739
1720
1695
1672
1658
1661
1684
1716
1750
1790
1840
1891
1931
1949
1951
1938
1917
1894
1877
1862
1846
1824
1788
1738
1685
1635
1602
1581
1583
1600
1625
1657
1697
1743
1789
1828
1866
1899
1926
1948
1975
1980
1987
1993
1996
1983
1955
1921
1885
1854
1832
1814
1791
1750
1709
1674
1655
1649
1658
1680
1706
1740
1780
1830
1884
1931
1964
1982
1992
2002
2009
2010
2003
1986
1964
1940
1923
1909
1900
1900
1900
1898
1896
1884
1867
1836
1796
1749
1696
1636
1575
1518
1474
1454
1462
1492
1540
1599
1658
1706
1740
1763
1780
1790
1791
1787
1781
1762
1743
1734
1731
1738
1752
1780
1817
1856
1901
1945
1988
2023
2054
2078
2082
2059
2012
1948
1877
1814
1769
1743
1746
1771
1816
1873
1947
2030
2113
2182
2230
2246
2235
2194
2137
2076
2017
1966
1921
1877
1832
1795
1768
1756
1753
1757
1762
1768
1770
1774
1786
1808
1833
1856
1885
1918
1951
1987
2028
2064
2086
2094
2084
2054
2023
1997
1974
1956
1950
1949
1954
1951
1941
1934
1921
1895
1862
1822
1785
1762
1744
1727
1710
1685
1660
1640
1625
1613
1600
1584
1574
1568
1572
1593
1628
1668
1711
1745
1759
1745
1708
1663
1617
1574
1533
1496
1464
1446
1450
1465
1491
1521
1557
1604
1651
1696
1732
1765
1798
1835
1871
1909
1958
2024
2098
2165
2210
2229
2225
2211
2184
2142
2092
2038
1990
1957
1940
1936
1938
1937
1923
1897
1866
1836
1815
1798
1791
1786
1784
1790
1808
1833
1860
1884
1902
1906
1896
1868
1832
1794
1766
1757
1757
1755
1742
1733
1734
1744
1767
1803
1850
1899
1941
1977
2007
2026
2031
2014
1976
1924
1865
1799
1733
1681
1656
1660
1684
1730
1783
1837
1881
1911
1928
1933
1927
1920
1912
1899
1874
1837
1789
1743
1702
1674
1667
1683
1722
1780
1841
1902
1966
2026
2072
2100
2109
2099
2078
2060
2049
2043
2041
2038
2031
2015
2000
1985
1966
1941
1913
1886
1856
1822
1792
1768
1749
1737
1726
1727
1739
1758
1781
1804
1824
1844
1863
1884
1899
1905
1899
1893
1889
1886
1874
1844
1804
1758
1710
1660
1621
1604
1620
1674
1758
1860
1966
2061
2135
2187
2226
2249
2252
2233
2200
2156
2109
2064
2016
1961
1891
1812
1739
1685
1660
1662
1688
1729
1782
1844
1904
1959
2013
2060
2084
2089
2074
2042
1998
1944
1895
1853
1817
1784
1758
1738
1728
1732
1750
1777
1812
1856
1906
1957
2010
2067
2121
2161
2165
2142
2108
2080
2054
2024
2002
1992
2000
2025
2058
2088
2102
2100
2084
2060
2031
2004
1982
1960
1936
1914
1903
1903
1910
1924
1946
1972
1999
2027
2049
2045
2015
1960
1885
1802
1724
1663
1624
1614
1623
1645
1673
1703
1729
1755
1790
1834
1888
1940
1991
2033
2058
2062
2052
2038
2020
1994
1973
1962
1969
1983
2006
2028
2042
2054
2057
2054
2044
2030
2015
1998
1983
1958
1912
1857
1806
1776
1768
1779
1802
1836
1890
1956
2031
2112
2196
2280
2356
2419
2461
2471
2450
2409
2357
2293
2215
2134
2064
2005
1957
1924
1912
1926
1956
1990
2026
2055
2067
2068
2062
2055
2046
2040
2039
2045
2058
2074
2085
2088
2078
2063
2042
2023
2006
1994
1997
2013
2051
2100
2146
2179
2198
2213
2233
2254
2278
2304
2338
2378
2412
2432
2445
2436
2403
2339
2250
2156
2064
1980
1903
1825
1736
1653
1585
1542
1521
1519
1526
1547
1581
1629
1683
1732
1773
1804
1838
1872
1907
1940
1967
1982
1993
2006
2018
2023
2014
1998
1972
1944
1919
1903
1895
1891
1892
1906
1927
1944
1951
1955
1959
1967
1980
1995
2006
2018
2030
2047
2069
2094
2128
2159
2184
2196
2193
2168
2130
2085
2042
2018
2014
2027
2070
2133
2208
2291
2378
2466
2548
2616
2670
2707
2724
2716
2688
2647
2607
2572
2548
2526
2505
2481
2460
2454
2482
2504
2477
2391
2250
2080
1901
1726
1572
1446
1336
1220
1094
976
882
837
844
890
962
1046
1135
1228
1325
1421
1516
1607
1682
1738
1781
1814
1835
1840
1835
1820
1810
1810
1823
1844
1858
1862
1857
1855
1856
1868
1884
1902
1925
1945
1973
1999
2020
2035
2045
2051
2044
2023
1997
1965
1924
1878
1844
1824
1817
1821
1837
1864
1910
1971
2047
2134
2225
2309
2385
2448
2493
2517
2513
2474
2418
2368
2335
2318
2307
2289
2254
2211
2166
2123
2076
2028
1989
1965
1962
1979
2010
2054
2104
2160
2222
2285
2352
2445
2555
2652
2707
2695
2626
2504
2348
2166
1965
1765
1586
1450
1360
1312
1296
1309
1342
1396
1476
1579
1690
1807
1916
2015
2095
2145
2176
2189
2198
2202
2201
2182
2144
2084
2004
1924
1830
1750
1683
1636
1615
1618
1638
1672
1723
1783
1847
1897
1926
1941
1956
1978
2008
2041
2066
2079
2084
2083
2072
2052
2019
1973
1922
1873
1835
1807
1791
1787
1798
1825
1867
1924
1986
2053
2112
2156
2192
2216
2238
2260
2282
2310
2335
2350
2350
2332
2312
2287
2251
2205
2155
2106
2063
2018
1974
1936
1916
1916
1932
1964
2006
2058
2120
2198
2283
2367
2444
2505
2557
2601
2637
2662
2670
2660
2638
2613
2590
2568
2548
2526
2506
2492
2488
2496
2509
2524
2543
2562
2585
2614
2640
2653
2644
2610
2561
2507
2458
2425
2418
2436
2478
2539
2604
2663
2708
2742
2762
2768
2759
2738
2706
2674
2644
2626
2618
2621
2628
2638
2648
2657
2665
2676
2695
2720
2745
2772
2792
2810
2822
2828
2826
2818
2808
2804
2800
2790
2771
2744
2714
2677
2636
2598
2569
2549
2542
2543
2554
2569
2592
2618
2641
2660
2677
2690
2700
2704
2700
2683
2658
2626
2586
2548
2507
2460
2417
2385
2372
2372
2379
2388
2398
2403
2414
2432
2459
2497
2553
2632
2749
2889
3022
3132
3209
3242
3220
3152
3054
2945
2842
2774
2738
2717
2704
2688
2668
2640
2604
2557
2510
2462
2415
2365
2304
2221
2123
2015
1911
1818
1742
1689
1663
1664
1676
1698
1728
1765
1807
1846
1877
1898
1902
1892
1879
1867
1852
1832
1810
1786
1758
1725
1690
1664
1652
1654
1664
1678
1699
1718
1739
1759
1779
1800
1820
1843
1868
1898
1927
1940
1940
1927
1909
1890
1868
1844
1818
1795
1779
1771
1775
1785
1802
1821
1846
1872
1905
1942
1982
2014
2034
2041
2039
2037
2041
2051
2068
2088
2101
2109
2104
2090
2065
2037
2008
1980
1960
1948
1943
1936
1932
1921
1900
1867
1826
1788
1758
1734
1716
1704
1696
1698
1708
1729
1749
1788
1824
1853
1884
1916
1948
1979
2006
2034
2060
2084
2101
2115
2126
2128
2116
2093
2064
2029
2000
1972
1941
1910
1883
1862
1844
1836
1835
1830
1821
1804
1788
1778
1776
1782
1793
1810
1838
1871
1901
1919
1926
1922
1913
1904
1893
1884
1880
1872
1859
1843
1829
1821
1816
1808
1804
1799
1794
1793
1796
1805
1826
1852
1884
1912
1936
1963
1985
1995
1988
1970
1938
1893
1849
1810
1778
1755
1745
1749
1759
1775
1796
1820
1844
1871
1901
1926
1947
1964
1980
1992
2009
2026
2042
2061
2073
2084
2085
2070
2040
2012
1990
1973
1965
1964
1973
1986
1994
2000
2001
1999
2002
2010
2014
2015
2015
2020
2026
2038
2056
2073
2089
2097
2099
2094
2082
2073
2066
2067
2073
2083
2086
2082
2076
2074
2075
2076
2073
2068
2060
2053
2044
2037
2031
2025
2026
2032
2037
2042
2046
2051
2058
2066
2076
2088
2104
2125
2140
2148
2150
2147
2138
2124
2116
2109
2109
2113
2120
2126
2137
2150
2160
2164
2166
2168
2176
2180
2180
2176
2162
2144
2122
2097
2073
2053
2034
2022
2012
2008
2009
2011
2020
2034
2054
2078
2104
2127
2145
2160
2173
2181
2188
2191
2190
2188
2184
2185
2184
2182
2180
2179
2178
2177
2177
2177
2176
2176
2172
2162
2153
2143
2137
2132
2128
2126
2127
2132
2136
2138
2140
2143
2144
2152
2161
2171
2184
2193
2194
2189
2174
2160
2148
2135
2120
2104
2088
2079
2076
2078
2083
2090
2102
2118
2134
2149
2161
2170
2168
2164
2155
2144
2136
2130
2130
2130
2133
2137
2142
2146
2152
2158
2162
2167
2174
2178
2182
2182
2180
2173
2170
2168
2166
2168
2168
2166
2165
2163
2161
2160
2158
2159
2162
2167
2174
2184
2194
2202
2210
2212
2212
2202
2187
2168
2152
2140
2131
2126
2127
2126
2126
2129
2142
2162
2190
2216
2232
2238
2233
2225
2214
2199
2185
2174
2166
2161
2160
2159
2156
2158
2160
2161
2163
2163
2164
2168
2174
2186
2199
2212
2224
2233
2240
2240
2238
2234
2228
2224
2221
2222
2229
2237
2249
2261
2272
2278
2283
2285
2288
2293
2298
2304
2314
2326
2343
2362
2383
2407
2429
2454
2472
2486
2496
2501
2504
2504
2502
2501
2501
2505
2510
2516
2524
2539
2562
2602
2650
2692
2714
2717
2698
2660
2610
2546
2479
2407
2336
2270
2217
2172
2140
2122
2115
2121
2143
2184
2256
2340
2417
2472
2503
2511
2503
2477
2441
2392
2334
2270
2205
2144
2086
2031
1985
1949
1925
1915
1919
1942
1968
1990
1997
1985
1955
1906
1849
1786
1726
1670
1623
1586
1558
1535
1524
1519
1524
1534
1549
1566
1585
1605
1625
1644
1667
1688
1706
1716
1718
1717
1712
1708
1702
1698
1693
1688
1685
1684
1686
1689
1694
1702
1713
1725
1738
1752
1767
1780
1797
1815
1837
1868
1907
1954
2005
2056
2107
2160
2212
2260
2297
2327
2345
2356
2362
2358
2344
2316
2280
2239
2194
2142
2086
2022
1950
1866
1775
1677
1572
1461
1352
1251
1164
1094
1046
1019
1015
1030
1062
1107
1163
1224
1289
1358
1431
1503
1576
1643
1707
1766
1817
1857
1889
1911
1927
1938
1943
1946
1952
1959
1960
1954
1938
1916
1896
1877
1863
1849
1840
1834
1829
1830
1835
1846
1856
1861
1866
1870
1879
1886
1892
1898
1903
1907
1911
1912
1911
1906
1903
1905
1909
1916
1922
1929
1935
1935
1934
1927
1920
1913
1906
1901
1899
1900
1903
1906
1911
1915
1921
1932
1944
1957
1965
1970
1974
1976
1977
1979
1983
1989
1990
1989
1986
1984
1982
1981
1982
1981
1981
1979
1976
1972
1968
1968
1974
1980
1992
2002
2013
2023
2033
2039
2044
2045
2045
2042
2039
2039
2041
2042
2042
2040
2039
2041
2044
2047
2051
2056
2066
2074
2080
2085
2089
2095
2101
2108
2114
2114
2112
2106
2100
2096
2095
2093
2089
2086
2088
2092
2102
2112
2117
2122
2125
2126
2126
2128
2132
2136
2141
2146
2150
2150
2148
2144
2139
2137
2141
2147
2155
2161
2166
2172
2179
2185
2190
2198
2205
2212
2218
2224
2232
2242
2248
2253
2257
2255
2256
2255
2254
2255
2260
2265
2274
2282
2289
2296
2304
2308
2314
2322
2333
2345
2361
2376
2388
2398
2400
2402
2405
2410
2418
2422
2428
2436
2443
2452
2460
2470
2481
2490
2498
2508
2516
2522
2531
2538
2548
2558
2572
2586
2600
2611
2622
2630
2640
2645
2649
2650
2648
2644
2644
2646
2653
2663
2674
2681
2688
2692
2698
2702
2710
2719
2731
2740
2749
2756
2765
2772
2775
2776
2776
2775
2774
2772
2772
2770
2771
2775
2778
2774
2767
2760
2755
2748
2745
2743
2742
2740
2734
2728
2717
2704
2693
2676
2660
2638
2619
2602
2584
2567
2549
2532
2516
2498
2482
2468
2455
2442
2428
2410
2390
2366
2338
2309
2282
2254
2228
2200
2177
2154
2134
2116
2100
2085
2069
2051
2032
2014
1999
1986
1976
1966
1960
1953
1946
1939
1931
1922
1912
1902
1890
1882
1878
1872
1868
1864
1860
1856
1852
1846
1842
1837
1831
1819
1807
1791
1777
1765
1752
1743
1737
1734
1733
1732
1736
1737
1740
1744
1746
1750
1751
1754
1758
1759
1764
1767
1771
1775
1778
1781
1783
1783
1780
1772
1763
1755
1748
1742
1735
1731
1725
1724
1724
1724
1726
1730
1735
1742
1746
1750
1752
1751
1750
1751
1751
1750
1748
1744
1743
1741
1738
1736
1735
1738
1742
1744
1752
1755
1760
1766
1770
1772
1775
1779
1782
1781
1779
1774
1764
1756
1748
1744
1742
1746
1750
1754
1758
1763
1766
1772
1774
1774
1773
1775
1776
1776
1776
1776
1778
1779
1779
1780
1780
1781
1784
1785
1788
1796
1805
1816
1826
1833
1834
1834
1829
1821
1814
1809
1806
1804
1800
1797
1790
1783
1776
1772
1768
1768
1771
1776
1780
1784
1790
1796
1799
1799
1800
1800
1802
1802
1800
1798
1796
1794
1796
1801
1805
1806
1808
1811
1820
1834
1846
1856
1860
1858
1853
1846
1839
1833
1829
1828
1828
1830
1828
1827
1827
1826
1828
1830
1832
1835
1840
1844
1846
1850
1852
1854
1857
1861
1861
1864
1864
1864
1862
1858
1855
1853
1850
1850
1852
1855
1862
1868
1874
1874
1871
1865
1858
1850
1840
1832
1825
1824
1826
1830
1834
1839
1844
1844
1843
1842
1841
1844
1848
1852
1856
1862
1864
1867
1869
1871
1874
1877
1880
1881
1880
1883
1888
1887
1884
1880
1876
1871
1865
1858
1852
1849
1847
1846
1844
1845
1844
1844
1847
1849
1853
1856
1857
1861
1866
1870
1878
1883
1890
1898
1906
1912
1916
1916
1916
1916
1917
1912
1904
1895
1888
1877
1867
1861
1854
1852
1854
1861
1869
1875
1881
1887
1892
1898
1901
1902
1904
1904
1904
1904
1904
1908
1911
1914
1919
1924
1928
1929
1929
1926
1924
1922
1919
1914
1912
1912
1916
1919
1924
1927
1930
1932
1931
1928
1923
1915
1911
1909
1910
1911
1913
1919
1921
1921
1923
1923
1923
1923
1920
1916
1915
1914
1917
1919
1922
1926
1930
1935
1941
1945
1949
1953
1955
1955
1957
1963
1967
1969
1968
1965
1963
1959
1956
1953
1951
1950
1951
1953
1955
1958
1964
1965
1970
1973
1977
1982
1990
1998
2009
2019
2030
2033
2034
2031
2028
2023
2018
2013
2009
2010
2012
2016
2020
2026
2033
2039
2045
2052
2060
2071
2085
2101
2120
2138
2154
2171
2188
2200
2210
2218
2224
2234
2244
2254
2262
2270
2274
2277
2275
2269
2256
2240
2218
2197
2177
2159
2144
2131
2124
2120
2120
2125
2128
2131
2134
2138
2142
2149
2150
2154
2156
2159
2161
2164
2168
2171
2171
2171
2170
2170
2170
2170
2169
2164
2158
2148
2132
2110
2084
2056
2024
1995
1967
1940
1914
1890
1866
1841
1818
1801
1788
1780
1773
1770
1771
1773
1776
1779
1782
1785
1791
1794
1798
1803
1810
1817
1821
1822
1824
1823
1821
1820
1821
1825
1831
1837
1844
1848
1850
1853
1853
1850
1846
1842
1841
1836
1831
1828
1827
1824
1824
1826
1832
1839
1850
1864
1881
1901
1927
1960
1998
2040
2086
2134
2184
2234
2284
2324
2355
2377
2387
2392
2388
2377
2356
2331
2298
2261
2219
2169
2118
2054
1982
1898
1805
1706
1602
1498
1394
1299
1215
1145
1097
1068
1064
1073
1096
1132
1176
1231
1290
1355
1422
1489
1559
1629
1698
1768
1830
1889
1935
1970
1993
2002
2000
1988
1969
1945
1919
1894
1871
1851
1839
1830
1826
1826
1831
1838
1850
1864
1876
1885
1895
1900
1908
1913
1917
1919
1921
1918
1917
1916
1915
1913
1915
1918
1925
1932
1937
1943
1952
1964
1978
1987
1989
1986
1975
1962
1951
1947
1947
1950
1955
1960
1968
1976
1980
1982
1983
1982
1982
1986
1990
1990
1991
1992
1995
1997
1998
1999
2000
2000
2002
2003
2005
2006
2010
2013
2019
2029
2040
2051
2059
2065
2067
2067
2062
2056
2050
2042
2038
2036
2035
2034
2036
2037
2039
2040
2042
2043
2046
2052
2058
2062
2065
2068
2071
2076
2078
2083
2086
2081
2080
2078
2076
2077
2078
2081
2085
2089
2092
2093
2095
2096
2101
2109
2120
2132
2141
2150
2152
2150
2147
2144
2141
2138
2134
2130
2129
2128
2128
2128
2131
2134
2139
2146
2152
2158
2164
2171
2178
2187
2196
2202
2212
2220
2228
2234
2240
2249
2258
2273
2283
2294
2301
2308
2308
2306
2302
2298
2294
2290
2290
2286
2287
2289
2294
2301
2306
2313
2321
2332
2344
2354
2364
2372
2376
2380
2383
2386
2389
2396
2408
2421
2435
2447
2457
2467
2474
2480
2488
2494
2501
2505
2510
2514
2519
2528
2540
2553
2568
2574
2582
2589
2596
2602
2609
2616
2622
2630
2636
2642
2648
2650
2657
2662
2668
2676
2682
2686
2692
2698
2705
2710
2713
2716
2720
2724
2728
2735
2745
2758
2776
2790
2806
2815
2816
2810
2794
2774
2751
2732
2715
2697
2680
2665
2649
2632
2618
2602
2589
2581
2569
2554
2542
2527
2513
2497
2478
2458
2440
2419
2398
2377
2357
2340
2326
2311
2296
2280
2264
2248
2231
2214
2196
2176
2156
2132
2107
2088
2072
2059
2050
2044
2040
2034
2026
2020
2013
2005
1997
1989
1979
1968
1958
1949
1941
1935
1928
1926
1927
1926
1931
1932
1934
1934
1932
1928
1920
1913
1903
1897
1895
1890
1886
1883
1878
1876
1873
1872
1875
1876
1880
1883
1887
1887
1890
1892
1892
1892
1894
1898
1902
1907
1912
1915
1915
1914
1910
1903
1897
1889
1881
1872
1867
1863
1862
1865
1870
1875
1879
1885
1886
1887
1889
1889
1889
1892
1890
1893
1894
1896
1900
1904
1910
1914
1913
1916
1918
1913
1918
1913
1912
1911
1912
1914
1913
1915
1916
1919
1922
1923
1925
1926
1924
1920
1916
1913
1910
1910
1915
1922
1933
1941
1946
1949
1947
1944
1939
1931
1925
1916
1914
1911
1910
1910
1911
1914
1915
1916
1913
1909
1904
1898
1894
1890
1885
1886
1885
1885
1887
1887
1886
1883
1876
1869
1864
1860
1858
1853
1850
1844
1837
1827
1819
1812
1807
1805
1806
1810
1816
1823
1832
1839
1844
1846
1841
1834
1826
1819
1813
1805
1802
1797
1794
1791
1789
1791
1794
1799
1803
1806
1810
1812
1814
1813
1813
1814
1814
1814
1814
1813
1813
1812
1813
1812
1811
1811
1808
1807
1805
1804
1806
1808
1809
1812
1817
1824
1830
1839
1847
1856
1860
1858
1850
1839
1829
1822
1817
1814
1810
1810
1812
1810
1811
1811
1809
1811
1815
1822
1828
1835
1842
1846
1852
1856
1858
1859
1857
1853
1849
1847
1846
1844
1848
1853
1858
1864
1868
1870
1870
1870
1871
1870
1871
1872
1872
1869
1862
1854
1848
1846
1848
1848
1849
1846
1844
1843
1842
1842
1843
1846
1852
1859
1866
1871
1877
1882
1884
1887
1888
1888
1886
1883
1882
1886
1892
1901
1908
1913
1914
1912
1910
1904
1901
1899
1901
1908
1919
1930
1942
1953
1962
1961
1953
1942
1926
1912
1901
1894
1890
1886
1888
1890
1890
1893
1895
1898
1902
1904
1908
1911
1915
1919
1922
1924
1928
1927
1928
1927
1926
1926
1928
1933
1936
1936
1937
1936
1935
1934
1933
1931
1934
1937
1940
1947
1954
1962
1971
1980
1988
1993
1993
1988
1980
1972
1966
1961
1956
1953
1950
1948
1948
1948
1948
1950
1953
1955
1955
1954
1952
1950
1949
1952
1955
1960
1964
1964
1966
1967
1967
1969
1972
1974
1975
1976
1976
1978
1983
1996
2009
2021
2034
2041
2043
2037
2027
2015
2004
1993
1983
1976
1971
1967
1966
1966
1967
1969
1972
1973
1975
1978
1979
1981
1983
1987
1992
1996
2002
2006
2010
2016
2021
2024
2028
2033
2034
2039
2040
2041
2042
2042
2043
2044
2043
2044
2043
2044
2045
2044
2046
2044
2042
2040
2039
2038
2040
2044
2055
2067
2084
2106
2130
2154
2179
2199
2216
2229
2240
2248
2252
2255
2256
2252
2248
2240
2231
2222
2212
2204
2198
2192
2188
2182
2174
2168
2164
2159
2153
2148
2142
2138
2136
2134
2138
2136
2136
2130
2123
2118
2114
2108
2100
2094
2086
2080
2074
2070
2065
2060
2057
2056
2054
2053
2048
2044
2039
2031
2024
2018
2009
1998
1990
1982
1978
1975
1970
1966
1962
1959
1957
1955
1956
1952
1952
1952
1952
1952
1951
1950
1951
1950
1949
1949
1949
1951
1955
1959
1965
1970
1972
1970
1970
1970
1970
1968
1966
1967
1966
1966
1967
1964
1963
1959
1956
1950
1946
1946
1949
1958
1972
1988
2004
2018
2031
2042
2061
2088
2120
2162
2209
2256
2308
2356
2400
2440
2473
2498
2518
2532
2543
2549
2548
2538
2517
2487
2449
2402
2346
2280
2203
2117
2020
1915
1806
1696
1586
1480
1390
1316
1258
1226
1218
1234
1268
1317
1374
1434
1498
1562
1626
1693
1754
1811
1863
1908
1947
1980
2000
2013
2018
2016
2011
1999
1986
1972
1960
1953
1947
1946
1949
1953
1957
1958
1959
1957
1957
1959
1960
1964
1965
1968
1974
1976
1980
1980
1982
1983
1984
1984
1986
1988
1988
1988
1988
1989
1990
1990
1992
1995
1999
2002
2005
2007
2007
2008
2008
2006
2005
2004
2005
2009
2016
2028
2040
2055
2067
2073
2073
2068
2057
2042
2031
2020
2009
2002
1998
1996
1996
1996
1999
2002
2006
2010
2014
2018
2023
2029
2033
2036
2042
2050
2057
2061
2067
2070
2072
2073
2074
2074
2076
2078
2082
2082
2082
2081
2081
2081
2085
2086
2092
2097
2101
2105
2108
2108
2105
2098
2092
2089
2088
2089
2093
2097
2104
2113
2113
2120
2122
2126
2127
2129
2133
2137
2141
2143
2143
2144
2144
2146
2149
2149
2152
2154
2158
2161
2164
2169
2170
2176
2177
2180
2185
2192
2202
2212
2222
2227
2225
2221
2214
2210
2208
2209
2214
2220
2224
2231
2236
2243
2253
2260
2270
2278
2290
2296
2304
2306
2308
2312
2316
2318
2321
2324
2326
2334
2340
2346
2354
2361
2368
2372
2378
2381
2388
2396
2403
2412
2421
2428
2436
2444
2453
2462
2468
2474
2477
2483
2487
2492
2495
2500
2509
2516
2526
2536
2548
2562
2574
2588
2602
2616
2628
2639
2650
2658
2664
2668
2671
2670
2670
2668
2668
2670
2673
2676
2678
2684
2689
2697
2707
2713
2720
2724
2726
2728
2730
2732
2732
2732
2733
2736
2736
2737
2739
2741
2742
2750
2756
2760
2760
2756
2747
2734
2720
2706
2686
2666
2644
2622
2602
2585
2570
2556
2543
2529
2514
2496
2475
2452
2434
2413
2397
2378
2360
2341
2322
2304
2286
2269
2252
2235
2217
2200
2185
2170
2157
2142
2128
2112
2100
2088
2078
2069
2062
2056
2046
2038
2028
2014
2001
1988
1976
1964
1956
1950
1942
1936
1926
1921
1915
1910
1909
1906
1902
1896
1892
1890
1889
1888
1886
1885
1883
1882
1883
1884
1883
1878
1873
1866
1860
1854
1852
1850
1853
1855
1859
1864
1871
1879
1884
1888
1886
1879
1871
1860
1851
1842
1838
1837
1838
1840
1843
1844
1847
1850
1853
1852
1851
1850
1848
1847
1845
1842
1840
1837
1835
1832
1832
1834
1834
1834
1837
1840
1847
1851
1857
1863
1868
1874
1880
1884
1888
1886
1881
1872
1862
1853
1846
1842
1843
1846
1853
1858
1864
1868
1870
1870
1869
1867
1863
1861
1860
1859
1861
1860
1861
1862
1864
1865
1872
1878
1882
1881
1878
1875
1870
1868
1866
1868
1872
1878
1885
1885
1882
1880
1876
1871
1865
1859
1853
1849
1847
1847
1848
1850
1851
1853
1856
1858
1863
1868
1873
1877
1879
1878
1876
1876
1877
1876
1878
1876
1877
1875
1874
1872
1869
1868
1868
1871
1877
1884
1892
1901
1906
1909
1908
1903
1895
1886
1879
1876
1871
1870
1867
1863
1856
1850
1842
1840
1843
1849
1858
1864
1869
1874
1880
1884
1886
1890
1893
1894
1896
1892
1891
1890
1892
1895
1896
1895
1894
1893
1893
1894
1897
1899
1899
1894
1890
1883
1879
1876
1875
1874
1873
1872
1872
1876
1879
1882
1885
1886
1888
1889
1890
1891
1892
1893
1895
1896
1894
1894
1895
1896
1898
1901
1908
1914
1921
1924
1925
1922
1921
1916
1911
1906
1901
1897
1896
1896
1896
1900
1903
1904
1906
1906
1906
1906
1904
1904
1905
1905
1909
1913
1916
1915
1914
1914
1912
1914
1914
1916
1919
1922
1924
1929
1934
1937
1942
1946
1948
1947
1949
1951
1954
1954
1953
1947
1945
1944
1942
1941
1939
1935
1930
1928
1926
1923
1921
1919
1920
1923
1925
1927
1928
1928
1928
1927
1928
1930
1934
1936
1940
1942
1945
1947
1948
1948
1947
1946
1946
1949
1950
1950
1950
1948
1948
1948
1950
1953
1955
1957
1960
1963
1966
1971
1974
1975
1968
1960
1954
1948
1944
1941
1941
1941
1942
1944
1947
1951
1956
1961
1966
1969
1973
1974
1973
1973
1973
1971
1969
1967
1967
1965
1964
1964
1964
1966
1970
1973
1980
1989
2002
2014
2023
2028
2029
2025
2015
2007
1998
1994
1994
1997
1998
1995
1988
1981
1975
1972
1973
1973
1975
1975
1975
1977
1980
1986
1992
1999
2001
2002
2001
2000
1998
1997
1996
1995
1997
1998
2001
2004
2006
2007
2007
2007
2004
2007
2005
2004
2004
2007
2013
2017
2023
2028
2030
2033
2036
2039
2043
2046
2050
2051
2052
2052
2050
2050
2050
2046
2046
2046
2049
2049
2052
2057
2062
2068
2073
2075
2079
2081
2082
2087
2094
2104
2116
2133
2152
2172
2192
2207
2223
2236
2251
2261
2268
2276
2282
2282
2280
2272
2262
2251
2236
2222
2208
2198
2189
2181
2173
2168
2160
2151
2142
2134
2130
2128
2122
2120
2120
2120
2122
2124
2126
2128
2128
2129
2128
2126
2122
2120
2121
2119
2118
2114
2110
2106
2100
2094
2085
2075
2068
2059
2050
2038
2028
2017
2005
1994
1986
1977
1970
1965
1963
1961
1964
1965
1972
1973
1974
1974
1977
1976
1975
1975
1972
1970
1967
1966
1963
1960
1962
1963
1968
1972
1975
1978
1980
1983
1988
1990
1992
1992
1990
1988
1987
1986
1983
1981
1978
1972
1962
1952
1944
1938
1937
1940
1947
1957
1970
1986
2002
2021
2044
2077
2118
2166
2218
2272
2328
2383
2437
2484
2524
2553
2576
2590
2600
2601
2594
2578
2551
2510
2459
2398
2328
2249
2163
2071
1970
1870
1767
1660
1556
1460
1380
1322
1285
1268
1274
1296
1332
1376
1430
1488
1550
1615
1683
1748
1810
1864
1909
1948
1979
2001
2016
2026
2032
2030
2024
2014
2004
1988
1975
1963
1954
1950
1946
1944
1948
1952
1956
1959
1966
1972
1978
1987
1992
1998
2002
2004
2007
2011
2014
2015
2013
2008
2004
2003
2002
2002
2005
2006
2007
2008
2008
2007
2007
2007
2007
2006
2005
2005
2007
2010
2014
2019
2023
2025
2027
2027
2030
2034
2035
2038
2040
2045
2050
2056
2060
2064
2064
2062
2062
2060
2060
2057
2053
2051
2049
2049
2053
2053
2054
2054
2057
2061
2064
2068
2069
2070
2072
2072
2073
2074
2077
2080
2084
2086
2090
2092
2098
2101
2104
2108
2112
2117
2117
2115
2111
2108
2108
2109
2109
2107
2106
2108
2109
2109
2108
2108
2110
2112
2117
2123
2131
2138
2144
2149
2154
2160
2166
2168
2169
2170
2172
2173
2172
2170
2166
2167
2166
2168
2169
2170
2172
2176
2180
2182
2186
2190
2196
2201
2206
2213
2218
2222
2227
2231
2236
2240
2243
2245
2251
2257
2262
2270
2273
2275
2275
2278
2284
2287
2293
2298
2304
2308
2313
2316
2321
2326
2333
2338
2342
2346
2350
2357
2362
2369
2375
2383
2387
2392
2396
2400
2405
2412
2418
2428
2437
2448
2460
2472
2485
2500
2508
2518
2526
2532
2538
2544
2551
2554
2558
2558
2555
2557
2561
2566
2573
2584
2599
2612
2625
2634
2642
2647
2646
2646
2648
2650
2650
2652
2656
2660
2666
2672
2678
2682
2686
2691
2699
2705
2713
2721
2728
2734
2736
2736
2735
2730
2726
2720
2717
2711
2710
2710
2708
2704
2697
2689
2677
2662
2647
2629
2614
2596
2580
2562
2544
2528
2512
2496
2480
2463
2449
2431
2413
2392
2372
2351
2331
2310
2292
2271
2254
2238
2221
2210
2195
2181
2169
2156
2145
2134
2124
2116
2110
2103
2094
2080
2064
2045
2028
2012
1997
1982
1968
1958
1947
1938
1932
1927
1924
1917
1912
1906
1901
1898
1895
1890
1885
1882
1878
1873
1869
1863
1857
1851
1848
1846
1846
1847
1849
1850
1854
1860
1863
1867
1869
1870
1869
1870
1871
1870
1869
1866
1862
1859
1855
1852
1849
1847
1848
1846
1846
1848
1849
1848
1848
1847
1848
1848
1851
1854
1859
1862
1865
1868
1867
1868
1868
1869
1870
1870
1872
1873
1874
1878
1883
1889
1887
1886
1888
1893
1901
1908
1910
1907
1904
1894
1887
1878
1870
1865
1861
1859
1858
1857
1856
1858
1860
1862
1866
1870
1874
1877
1880
1883
1886
1889
1889
1888
1888
1887
1887
1888
1888
1889
1890
1890
1888
1883
1880
1876
1872
1870
1872
1877
1882
1889
1894
1896
1898
1899
1898
1897
1896
1896
1896
1896
1895
1894
1892
1892
1893
1895
1896
1899
1900
1901
1900
1897
1896
1894
1893
1893
1892
1892
1893
1891
1890
1891
1891
1895
1898
1903
1903
1905
1903
1901
1900
1897
1895
1895
1895
1899
1904
1911
1917
1922
1925
1924
1922
1916
1911
1903
1894
1886
1882
1881
1885
1889
1895
1901
1907
1911
1913
1913
1913
1912
1912
1913
1914
1918
1924
1930
1936
1942
1946
1944
1945
1944
1942
1939
1932
1924
1914
1904
1899
1896
1897
1897
1901
1904
1908
1913
1914
1916
1914
1911
1910
1908
1905
1904
1903
1904
1904
1903
1905
1908
1912
1916
1918
1919
1918
1919
1922
1925
1928
1930
1933
1933
1934
1934
1930
1927
1924
1921
1919
1918
1919
1922
1926
1928
1929
1931
1932
1934
1937
1937
1940
1940
1941
1944
1947
1951
1954
1956
1956
1957
1956
1955
1952
1947
1940
1934
1928
1925
1924
1924
1926
1926
1929
1932
1936
1940
1943
1948
1950
1951
1949
1946
1945
1945
1949
1951
1950
1949
1946
1943
1942
1940
1940
1940
1940
1940
1941
1942
1945
1950
1956
1959
1966
1970
1974
1974
1970
1967
1967
1962
1962
1961
1962
1960
1959
1958
1959
1958
1957
1956
1955
1953
1954
1954
1956
1959
1960
1963
1964
1966
1967
1968
1967
1967
1966
1966
1965
1964
1966
1967
1970
1974
1979
1983
1988
1990
1986
1983
1980
1978
1978
1978
1982
1982
1983
1984
1982
1979
1977
1975
1974
1970
1967
1967
1971
1978
1986
1990
1991
1990
1989
1992
1997
2005
2016
2026
2033
2034
2032
2027
2020
2010
1999
1986
1973
1964
1961
1960
1964
1969
1975
1981
1986
1988
1990
1992
1995
1996
1996
1995
1993
1993
1994
1994
1997
1998
2002
2006
2010
2014
2016
2015
2015
2014
2015
2015
2015
2018
2021
2022
2022
2022
2022
2025
2026
2027
2031
2033
2038
2040
2042
2043
2047
2052
2056
2057
2058
2060
2061
2059
2066
2071
2080
2089
2102
2114
2128
2143
2158
2176
2192
2211
2226
2238
2244
2245
2242
2241
2240
2235
2230
2221
2214
2204
2192
2176
2160
2144
2128
2114
2102
2093
2087
2086
2086
2092
2097
2103
2106
2108
2105
2100
2094
2086
2080
2074
2068
2064
2059
2057
2059
2064
2068
2069
2066
2060
2052
2045
2036
2027
2015
2001
1986
1970
1956
1947
1940
1933
1926
1921
1917
1912
1909
1907
1910
1917
1925
1932
1942
1951
1957
1960
1960
1957
1954
1951
1946
1940
1935
1932
1930
1932
1932
1934
1938
1940
1942
1942
1942
1941
1941
1938
1940
1940
1941
1943
1946
1951
1956
1957
1956
1954
1951
1948
1947
1946
1950
1958
1971
1986
2009
2037
2075
2117
2162
2215
2269
2328
2384
2436
2476
2502
2518
2525
2526
2522
2514
2496
2474
2440
2398
2349
2293
2230
2161
2084
1998
1908
1814
1714
1606
1498
1401
1317
1254
1214
1196
1198
1220
1254
1300
1352
1416
1481
1552
1625
1694
1762
1822
1876
1921
1957
1986
2005
2017
2023
2022
2017
2009
1998
1987
1974
1964
1959
1958
1960
1962
1966
1970
1970
1970
1970
1972
1976
1981
1984
1990
1992
1993
1993
1992
1993
1994
1999
2000
2002
2004
2006
2008
2008
2008
2008
2010
2011
2012
2013
2018
2022
2025
2025
2026
2025
2026
2027
2027
2028
2023
2025
2028
2028
2030
2034
2036
2038
2041
2042
2045
2048
2052
2056
2061
2066
2072
2072
2073
2073
2073
2069
2068
2065
2062
2058
2056
2054
2054
2052
2056
2060
2064
2071
2076
2082
2088
2094
2097
2100
2103
2105
2107
2106
2105
2101
2099
2098
2097
2098
2101
2101
2104
2106
2106
2110
2113
2116
2119
2120
2120
2120
2122
2126
2132
2140
2144
2146
2149
2148
2149
2149
2150
2150
2147
2148
2148
2150
2154
2160
2168
2172
2180
2184
2186
2188
2189
2188
2188
2185
2185
2186
2192
2201
2212
2222
2228
2236
2244
2249
2255
2259
2259
2257
2252
2249
2247
2244
2244
2242
2243
2247
2251
2258
2264
2272
2280
2288
2295
2300
2307
2312
2318
2324
2330
2335
2343
2350
2358
2366
2373
2380
2385
2388
2392
2394
2399
2404
2408
2414
2424
2436
2447
2456
2464
2473
2480
2488
2494
2499
2505
2511
2517
2524
2532
2539
2547
2560
2572
2585
2601
2615
2629
2640
2643
2644
2642
2640
2640
2640
2642
2644
2649
2654
2658
2660
2663
2669
2676
2680
2688
2693
2697
2701
2702
2704
2703
2705
2708
2712
2718
2726
2736
2740
2744
2742
2738
2730
2722
2715
2708
2698
2689
2674
2659
2640
2620
2600
2580
2558
2539
2524
2509
2494
2480
2465
2448
2430
2410
2388
2365
2344
2327
2310
2295
2280
2267
2253
2241
2225
2210
2192
2173
2154
2138
2123
2112
2099
2084
2066
2046
2031
2020
2011
2003
1995
1980
1975
1968
1960
1952
1944
1936
1928
1917
1909
1900
1893
1888
1883
1881
1879
1876
1872
1867
1862
1857
1852
1846
1840
1833
1829
1827
1828
1829
1830
1832
1834
1836
1840
1846
1852
1861
1868
1874
1875
1872
1871
1868
1862
1856
1848
1839
1834
1830
1826
1825
1822
1823
1822
1823
1826
1829
1832
1834
1833
1834
1836
1837
1836
1836
1836
1834
1836
1838
1842
1844
1844
1842
1840
1840
1836
1833
1828
1827
1825
1826
1827
1830
1837
1844
1853
1858
1861
1861
1860
1856
1854
1848
1841
1836
1832
1829
1829
1826
1827
1828
1831
1834
1836
1837
1839
1840
1842
1841
1841
1840
1841
1843
1847
1847
1848
1851
1852
1854
1856
1858
1860
1862
1864
1868
1872
1874
1875
1876
1874
1875
1876
1882
1889
1893
1895
1891
1884
1876
1869
1863
1858
1856
1854
1857
1860
1861
1862
1864
1864
1866
1865
1864
1861
1860
1857
1859
1863
1870
1876
1882
1888
1892
1896
1899
1901
1906
1911
1914
1918
1918
1917
1912
1904
1894
1883
1872
1863
1856
1854
1853
1858
1864
1868
1872
1873
1876
1876
1876
1876
1876
1876
1880
1883
1886
1887
1891
1892
1895
1896
1900
1902
1906
1908
1908
1906
1900
1892
1886
1881
1881
1882
1886
1888
1894
1897
1897
1896
1895
1893
1891
1890
1890
1889
1888
1887
1888
1890
1892
1898
1903
1909
1917
1924
1930
1935
1938
1940
1942
1940
1938
1933
1925
1916
1909
1902
1898
1896
1894
1890
1888
1888
1890
1894
1900
1910
1924
1936
1948
1952
1954
1951
1946
1940
1933
1928
1924
1921
1920
1919
1919
1919
1923
1925
1926
1930
1933
1935
1936
1936
1930
1924
1919
1911
1904
1897
1891
1885
1878
1876
1876
1878
1883
1888
1893
1899
1906
1913
1919
1925
1928
1930
1933
1934
1937
1936
1936
1934
1930
1928
1925
1926
1928
1934
1943
1953
1961
1967
1972
1970
1964
1956
1945
1937
1930
1928
1929
1934
1936
1933
1930
1927
1925
1925
1927
1928
1932
1934
1942
1948
1952
1954
1955
1956
1955
1956
1956
1958
1961
1964
1970
1972
1974
1973
1971
1965
1961
1957
1955
1952
1952
1948
1946
1942
1939
1936
1936
1936
1937
1938
1940
1941
1942
1946
1949
1953
1958
1961
1962
1964
1966
1964
1966
1968
1969
1970
1972
1975
1979
1983
1988
1994
2000
2007
2011
2008
1997
1987
1976
1968
1961
1956
1952
1948
1944
1942
1941
1941
1944
1948
1954
1958
1961
1961
1960
1960
1963
1966
1968
1970
1974
1982
1987
1990
1990
1992
1991
1991
1991
1990
1988
1986
1982
1978
1973
1970
1967
1966
1964
1964
1964
1964
1962
1961
1958
1958
1958
1961
1967
1975
1983
1990
1993
1997
1999
2002
2004
2006
2007
2006
2005
2005
2007
2011
2018
2026
2033
2042
2051
2057
2064
2070
2073
2074
2072
2069
2064
2060
2057
2053
2050
2050
2052
2060
2072
2088
2108
2128
2148
2171
2192
2212
2228
2240
2247
2250
2250
2248
2244
2240
2232
2220
2204
2192
2177
2158
2138
2117
2098
2084
2076
2073
2072
2076
2082
2087
2092
2094
2096
2098
2095
2094
2090
2089
2089
2090
2091
2092
2089
2086
2082
2076
2069
2062
2056
2048
2039
2031
2020
2009
1997
1983
1972
1959
1947
1941
1936
1931
1926
1923
1922
1920
1925
1928
1932
1936
1940
1945
1948
1954
1956
1959
1961
1963
1965
1970
1977
1982
1987
1988
1987
1983
1982
1979
1975
1972
1969
1960
1950
1942
1936
1930
1928
1927
1926
1926
1925
1925
1925
1924
1926
1929
1930
1932
1936
1943
1954
1967
1985
2005
2029
2056
2087
2121
2161
2208
2261
2313
2365
2412
2450
2476
2493
2505
2514
2520
2521
2514
2496
2467
2428
2380
2321
2253
2176
2090
1997
1897
1794
1688
1577
1468
1369
1288
1226
1191
1178
1184
1206
1243
1288
1342
1403
1468
1538
1611
1684
1752
1818
1878
1932
1976
2010
2031
2045
2052
2050
2042
2032
2020
2008
1995
1982
1971
1963
1960
1959
1965
1974
1982
1992
1999
2004
2010
2013
2015
2018
2018
2014
2012
2010
2010
2010
2010
2009
2006
2002
1996
1994
1990
1990
1990
1992
1996
1999
2005
2010
2019
2028
2034
2041
2046
2053
2055
2059
2060
2060
2060
2060
2061
2060
2058
2054
2050
2044
2040
2038
2036
2036
2032
2031
2032
2038
2044
2052
2058
2060
2062
2064
2069
2074
2082
2092
2101
2106
2106
2102
2094
2082
2074
2067
2061
2058
2058
2062
2066
2072
2076
2079
2086
2093
2096
2098
2101
2102
2106
2108
2109
2110
2110
2114
2116
2117
2118
2120
2120
2122
2126
2132
2132
2132
2132
2133
2135
2133
2130
2129
2132
2134
2138
2142
2147
2150
2154
2162
2167
2176
2182
2188
2192
2194
2196
2197
2197
2200
2202
2208
2214
2220
2225
2227
2228
2228
2228
2227
2228
2230
2233
2236
2239
2244
2248
2253
2258
2264
2266
2269
2271
2274
2278
2281
2285
2292
2297
2304
2309
2313
2316
2321
2330
2337
2344
2348
2351
2355
2357
2361
2368
2377
2390
2404
2414
2420
2426
2428
2431
2433
2436
2442
2448
2454
2462
2470
2480
2490
2500
2507
2515
2525
2534
2544
2553
2561
2567
2576
2584
2596
2605
2614
2621
2628
2632
2634
2638
2642
2643
2646
2650
2655
2659
2665
2672
2680
2690
2702
2712
2721
2727
2729
2730
2732
2734
2740
2745
2748
2752
2750
2748
2744
2739
2734
2728
2722
2716
2709
2703
2694
2685
2674
2664
2656
2648
2642
2634
2624
2614
2600
2584
2566
2546
2526
2506
2484
2463
2442
2421
2398
2376
2354
2334
2314
2294
2277
2259
2242
2226
2212
2197
2182
2167
2150
2133
2115
2095
2076
2058
2040
2026
2016
2004
2000
2000
2004
2006
2004
1998
1986
1975
1962
1951
1940
1933
1924
1916
1907
1898
1889
1884
1879
1879
1881
1885
1890
1893
1894
1894
1891
1886
1879
1871
1863
1858
1854
1850
1847
1846
1845
1845
1842
1841
1842
1844
1848
1850
1856
1858
1863
1868
1872
1874
1872
1871
1870
1867
1861
1859
1857
1859
1862
1862
1861
1858
1854
1851
1849
1847
1846
1848
1854
1857
1861
1865
1866
1865
1861
1854
1848
1843
1841
1840
1839
1841
1844
1849
1853
1860
1868
1874
1878
1880
1879
1877
1874
1872
1870
1871
1875
1880
1886
1896
1902
1902
1897
1892
1886
1880
1876
1874
1875
1876
1879
1881
1882
1883
1884
1885
1883
1884
1886
1884
1885
1888
1893
1898
1904
1911
1920
1926
1927
1924
1919
1910
1903
1894
1888
1880
1876
1875
1875
1876
1878
1880
1882
1881
1883
1884
1885
1890
1894
1896
1895
1894
1894
1892
1892
1891
1892
1891
1890
1892
1894
1894
1894
1896
1895
1890
1888
1885
1884
1884
1887
1889
1894
1896
1896
1898
1901
1905
1908
1912
1915
1917
1916
1908
1898
1888
1882
1878
1876
1875
1878
1884
1888
1894
1898
1901
1906
1910
1916
1919
1924
1927
1930
1932
1932
1930
1928
1923
1917
1908
1900
1893
1885
1884
1883
1883
1886
1891
1893
1898
1901
1907
1911
1915
1916
1918
1918
1918
1916
1914
1911
1908
1903
1899
1896
1894
1893
1894
1897
1900
1905
1911
1914
1916
1916
1914
1911
1908
1905
1903
1903
1906
1910
1916
1919
1921
1917
1912
1908
1905
1905
1906
1908
1910
1913
1918
1922
1929
1936
1942
1948
1954
1960
1960
1958
1958
1954
1949
1944
1939
1934
1930
1924
1920
1917
1916
1914
1912
1912
1914
1919
1922
1925
1927
1928
1930
1930
1930
1929
1929
1931
1929
1930
1931
1932
1934
1933
1934
1933
1934
1935
1940
1945
1949
1951
1949
1944
1941
1938
1936
1935
1933
1935
1939
1942
1946
1950
1952
1952
1949
1946
1942
1940
1938
1940
1944
1947
1950
1954
1958
1956
1955
1953
1952
1954
1956
1957
1958
1959
1960
1962
1962
1961
1958
1956
1952
1950
1951
1958
1965
1972
1974
1976
1974
1972
1972
1975
1977
1979
1979
1976
1972
1968
1962
1956
1949
1947
1948
1949
1952
1956
1960
1963
1965
1968
1969
1972
1972
1971
1969
1967
1966
1964
1962
1960
1960
1962
1967
1973
1978
1981
1986
1990
1997
2001
2002
2000
1995
1988
1982
1977
1974
1973
1971
1968
1966
1966
1968
1968
1970
1973
1976
1981
1984
1988
1990
1990
1989
1989
1990
1991
1994
1995
1994
1993
1991
1987
1982
1977
1971
1967
1966
1969
1971
1974
1979
1986
1988
1994
2002
2008
2010
2010
2009
2008
2006
2006
2007
2007
2004
2000
1997
1995
1994
1995
1993
1993
1991
1989
1988
1989
1988
1986
1988
1990
1993
1998
2006
2013
2020
2024
2025
2025
2021
2019
2016
2013
2013
2014
2014
2014
2010
2007
2006
2008
2012
2021
2030
2038
2047
2056
2060
2068
2069
2068
2067
2066
2064
2064
2066
2069
2072
2077
2078
2079
2076
2076
2076
2076
2078
2080
2084
2090
2098
2108
2124
2139
2160
2181
2199
2218
2235
2249
2260
2266
2268
2266
2262
2254
2245
2233
2220
2207
2194
2184
2176
2170
2165
2156
2152
2146
2141
2136
2130
2126
2122
2120
2118
2118
2118
2117
2117
2117
2118
2118
2116
2114
2112
2110
2108
2106
2102
2097
2090
2085
2077
2070
2063
2056
2046
2038
2027
2014
2000
1987
1976
1970
1969
1968
1970
1972
1972
1972
1973
1975
1973
1970
1966
1961
1957
1952
1948
1948
1949
1953
1959
1966
1972
1975
1976
1980
1982
1986
1992
1995
1999
1999
1997
1994
1993
1993
1994
1994
1992
1983
1974
1963
1953
1947
1942
1940
1942
1948
1957
1967
1977
1989
2005
2022
2044
2076
2112
2151
2194
2235
2274
2316
2353
2390
2420
2445
2461
2472
2479
2483
2481
2468
2446
2416
2379
2334
2282
2222
2152
2070
1975
1871
1758
1640
1519
1403
1300
1212
1147
1108
1094
1106
1138
1187
1250
1319
1394
1471
1551
1629
1705
1777
1843
1905
1959
2002
2037
2066
2086
2099
2104
2101
2091
2076
2054
2030
2005
1982
1960
1946
1935
1932
1933
1936
1944
1951
1962
1972
1980
1991
1998
2004
2009
2012
2016
2020
2024
2026
2027
2031
2035
2038
2043
2044
2044
2043
2043
2043
2043
2042
2040
2038
2038
2035
2033
2030
2027
2025
2026
2027
2028
2028
2028
2033
2040
2047
2052
2054
2056
2060
2060
2064
2064
2064
2063
2063
2063
2064
2064
2066
2068
2071
2074
2078
2084
2090
2094
2101
2107
2112
2109
2107
2100
2093
2086
2080
2076
2076
2077
2080
2085
2092
2100
2110
2116
2118
2118
2116
2116
2117
2118
2120
2120
2118
2116
2115
2113
2113
2114
2118
2121
2126
2130
2136
2140
2141
2144
2148
2153
2158
2164
2168
2170
2170
2168
2165
2162
2158
2156
2158
2160
2165
2168
2172
2177
2180
2186
2190
2192
2196
2198
2201
2204
2207
2212
2216
2220
2223
2226
2230
2236
2242
2250
2254
2261
2273
2284
2294
2301
2306
2309
2311
2308
2306
2299
2294
2290
2290
2292
2297
2304
2310
2316
2326
2333
2342
2349
2356
2362
2366
2372
2376
2380
2386
2390
2396
2402
2412
2422
2432
2446
2458
2472
2488
2504
2520
2534
2545
2551
2556
2555
2552
2546
2543
2541
2543
2546
2553
2563
2573
2584
2594
2604
2618
2630
2638
2646
2653
2658
2665
2668
2674
2680
2686
2690
2698
2704
2710
2716
2722
2727
2733
2738
2744
2749
2755
2762
2768
2773
2775
2775
2772
2766
2758
2752
2746
2738
2733
2727
2721
2715
2710
2704
2695
2684
2676
2666
2656
2647
2632
2618
2602
2583
2564
2542
2520
2498
2476
2454
2432
2408
2388
2364
2344
2325
2306
2286
2270
2250
2234
2217
2200
2184
2170
2157
2146
2136
2128
2117
2107
2095
2085
2074
2068
2058
2044
2030
2017
2001
1986
1975
1963
1953
1942
1932
1922
1913
1904
1897
1888
1881
1873
1867
1864
1862
1861
1860
1859
1855
1851
1848
1845
1845
1846
1847
1852
1856
1864
1871
1874
1874
1872
1870
1866
1863
1858
1853
1847
1842
1836
1831
1828
1825
1824
1822
1822
1821
1822
1825
1829
1832
1836
1837
1839
1839
1839
1840
1840
1842
1842
1842
1843
1847
1849
1851
1849
1846
1841
1838
1835
1832
1827
1824
1824
1825
1829
1831
1834
1837
1838
1839
1841
1844
1846
1847
1850
1851
1854
1856
1858
1861
1865
1868
1871
1873
1875
1875
1876
1874
1869
1865
1860
1858
1857
1857
1860
1860
1863
1865
1869
1872
1873
1872
1869
1865
1858
1853
1847
1844
1843
1842
1844
1846
1849
1855
1862
1868
1872
1878
1880
1883
1884
1883
1881
1877
1874
1869
1862
1868
1868
1866
1864
1860
1858
1860
1864
1868
1871
1876
1879
1882
1883
1883
1884
1886
1886
1886
1886
1884
1883
1877
1872
1868
1864
1862
1860
1857
1856
1858
1860
1864
1869
1873
1876
1878
1880
1880
1879
1875
1872
1869
1870
1871
1872
1874
1873
1873
1872
1873
1875
1876
1878
1880
1886
1891
1896
1897
1898
1900
1898
1893
1886
1878
1870
1864
1858
1856
1855
1854
1857
1860
1866
1870
1874
1879
1887
1895
1906
1914
1920
1922
1919
1914
1905
1897
1890
1889
1884
1884
1884
1884
1883
1884
1886
1886
1885
1884
1884
1881
1881
1882
1886
1892
1892
1894
1896
1895
1894
1897
1898
1903
1908
1910
1911
1911
1910
1908
1906
1904
1906
1908
1908
1908
1908
1906
1906
1902
1898
1898
1898
1903
1907
1913
1916
1919
1924
1926
1927
1928
1926
1924
1921
1919
1917
1911
1908
1904
1902
1900
1901
1902
1905
1907
1907
1910
1912
1916
1919
1919
1922
1919
1919
1921
1920
1920
1921
1919
1919
1920
1922
1924
1928
1930
1929
1930
1928
1931
1933
1938
1942
1944
1945
1946
1942
1937
1930
1926
1924
1925
1928
1935
1940
1945
1946
1947
1948
1950
1951
1952
1953
1956
1960
1962
1964
1962
1958
1952
1946
1942
1939
1940
1940
1942
1943
1945
1946
1946
1943
1940
1940
1943
1949
1951
1954
1956
1958
1960
1960
1960
1958
1958
1958
1959
1963
1967
1967
1966
1964
1962
1964
1965
1967
1968
1969
1968
1966
1964
1961
1958
1956
1953
1952
1950
1950
1948
1949
1950
1951
1951
1954
1954
1954
1954
1954
1954
1955
1954
1954
1957
1960
1964
1968
1974
1980
1987
1991
1991
1986
1978
1968
1962
1960
1962
1964
1967
1969
1971
1973
1972
1973
1973
1976
1977
1977
1974
1970
1970
1972
1973
1974
1972
1973
1972
1972
1972
1975
1978
1981
1990
2001
2014
2026
2037
2041
2039
2036
2032
2028
2026
2026
2030
2036
2042
2044
2046
2045
2044
2046
2050
2052
2052
2052
2053
2056
2055
2057
2060
2064
2072
2084
2100
2120
2145
2168
2193
2216
2235
2249
2256
2258
2259
2256
2250
2244
2236
2225
2212
2198
2184
2171
2155
2140
2128
2118
2111
2105
2100
2097
2098
2100
2105
2109
2114
2118
2120
2124
2124
2125
2128
2128
2122
2114
2102
2090
2076
2062
2050
2038
2030
2026
2021
2020
2013
2007
1997
1984
1974
1968
1964
1962
1959
1953
1946
1940
1936
1933
1933
1934
1936
1936
1939
1940
1942
1943
1943
1944
1946
1948
1952
1956
1959
1964
1970
1976
1981
1983
1983
1980
1972
1964
1956
1947
1940
1932
1926
1923
1918
1915
1914
1911
1910
1913
1916
1920
1924
1928
1930
1934
1940
1947
1954
1961
1969
1982
1998
2022
2054
2092
2135
2182
2234
2289
2346
2402
2451
2495
2527
2546
2553
2554
2548
2529
2501
2467
2420
2370
2309
2241
2166
2083
1990
1891
1785
1674
1560
1452
1353
1272
1212
1172
1154
1157
1178
1212
1258
1312
1373
1439
1507
1577
1646
1717
1785
1845
1906
1958
1998
2027
2046
2058
2058
2050
2036
2020
2002
1982
1964
1948
1936
1925
1923
1925
1928
1934
1940
1947
1954
1960
1966
1973
1982
1988
1993
1999
2003
2006
2008
2012
2013
2015
2018
2022
2025
2027
2032
2036
2036
2033
2028
2022
2018
2012
2002
1996
1988
1983
1982
1985
1988
1992
1999
2009
2018
2024
2031
2037
2043
2044
2045
2045
2043
2044
2045
2048
2050
2050
2052
2056
2059
2060
2060
2058
2056
2053
2050
2049
2047
2047
2050
2054
2056
2058
2061
2066
2071
2074
2078
2081
2084
2084
2084
2086
2088
2092
2098
2105
2112
2116
2122
2123
2118
2110
2101
2092
2088
2083
2081
2083
2086
2092
2106
2118
2128
2134
2138
2139
2138
2135
2133
2131
2130
2128
2128
2132
2134
2138
2144
2151
2158
2168
2180
2192
2204
2209
2210
2208
2205
2200
2194
2189
2182
2177
2174
2173
2170
2170
2173
2179
2184
2193
2200
2206
2212
2218
2223
2231
2238
2246
2254
2262
2269
2273
2274
2276
2278
2277
2278
2279
2282
2285
2290
2297
2302
2307
2312
2315
2320
2326
2335
2344
2353
2363
2372
2382
2389
2396
2404
2412
2418
2424
2433
2445
2452
2460
2468
2478
2486
2492
2497
2501
2504
2510
2517
2526
2538
2550
2562
2568
2574
2577
2580
2588
2596
2606
2613
2623
2630
2637
2642
2647
2651
2654
2658
2661
2663
2666
2669
2673
2674
2676
2678
2681
2684
2690
2694
2698
2701
2702
2703
2708
2713
2722
2728
2734
2736
2740
2738
2736
2733
2726
2716
2703
2688
2672
2654
2640
2624
2608
2592
2576
2561
2543
2526
2508
2490
2470
2452
2431
2410
2388
2366
2347
2325
2304
2285
2266
2249
2230
2213
2195
2177
2158
2142
2126
2110
2096
2083
2070
2056
2043
2031
2022
2015
2006
1997
1988
1977
1968
1958
1952
1945
1940
1938
1937
1934
1928
1922
1914
1905
1893
1882
1873
1862
1854
1846
1839
1835
1833
1836
1840
1842
1844
1846
1849
1853
1858
1863
1866
1866
1860
1852
1848
1845
1842
1838
1835
1832
1831
1833
1834
1836
1839
1844
1847
1849
1852
1852
1854
1854
1854
1854
1853
1853
1858
1860
1865
1866
1865
1864
1861
1857
1852
1850
1849
1850
1854
1857
1861
1860
1857
1854
1854
1856
1853
1852
1849
1846
1842
1841
1841
1842
1844
1846
1848
1852
1855
1858
1862
1866
1868
1870
1872
1876
1880
1886
1892
1895
1897
1901
1903
1902
1898
1891
1882
1872
1863
1858
1854
1849
1847
1847
1849
1851
1854
1859
1864
1874
1881
1886
1891
1896
1900
1904
1906
1906
1905
1903
1904
1902
1900
1896
1894
1889
1884
1879
1874
1872
1868
1866
1870
1872
1876
1878
1882
1885
1886
1890
1892
1896
1898
1900
1900
1897
1893
1892
1893
1893
1895
1900
1906
1912
1916
1916
1917
1914
1912
1909
1909
1906
1902
1900
1898
1894
1894
1892
1894
1897
1896
1898
1901
1903
1906
1906
1906
1906
1903
1898
1891
1884
1881
1878
1880
1880
1882
1889
1896
1905
1912
1919
1921
1919
1917
1917
1919
1921
1922
1922
1917
1911
1906
1904
1905
1903
1900
1896
1893
1891
1890
1891
1891
1892
1890
1891
1893
1895
1900
1903
1908
1910
1914
1914
1916
1915
1914
1908
1905
1900
1898
1897
1898
1899
1901
1904
1910
1914
1917
1917
1916
1917
1917
1919
1919
1916
1913
1908
1909
1908
1906
1906
1906
1908
1908
1912
1918
1924
1929
1934
1938
1941
1940
1938
1935
1931
1923
1915
1907
1901
1897
1895
1896
1898
1899
1902
1908
1915
1921
1930
1939
1943
1946
1944
1940
1936
1928
1923
1917
1913
1910
1908
1909
1908
1910
1912
1918
1919
1920
1918
1918
1919
1920
1924
1926
1928
1930
1934
1936
1936
1936
1934
1935
1937
1936
1937
1940
1945
1950
1955
1959
1962
1965
1965
1963
1957
1948
1939
1932
1926
1922
1922
1919
1919
1924
1929
1932
1937
1942
1946
1948
1948
1950
1949
1950
1951
1947
1946
1946
1946
1942
1943
1945
1946
1947
1948
1950
1949
1951
1954
1963
1969
1975
1978
1979
1978
1976
1970
1962
1957
1952
1950
1950
1948
1948
1950
1952
1953
1953
1954
1954
1955
1955
1956
1959
1960
1962
1962
1966
1966
1969
1972
1972
1973
1970
1967
1967
1968
1969
1969
1969
1965
1963
1960
1958
1958
1960
1960
1963
1963
1963
1962
1962
1960
1962
1961
1962
1968
1974
1979
1983
1986
1987
1987
1988
1990
1992
1994
1998
2002
2007
2011
2011
2005
1995
1985
1977
1970
1966
1963
1964
1965
1967
1971
1973
1979
1982
1984
1987
1989
1995
2003
2013
2022
2032
2042
2052
2062
2064
2071
2076
2078
2081
2084
2087
2090
2093
2096
2098
2098
2098
2096
2098
2101
2107
2117
2131
2145
2159
2176
2192
2206
2219
2230
2236
2239
2237
2235
2233
2227
2218
2206
2193
2178
2163
2147
2134
2123
2114
2105
2100
2100
2099
2100
2100
2100
2100
2100
2100
2102
2102
2102
2100
2096
2092
2088
2086
2080
2072
2068
2064
2062
2058
2054
2051
2046
2042
2034
2026
2018
2004
1991
1978
1966
1953
1944
1941
1938
1937
1938
1941
1942
1940
1938
1940
1938
1939
1940
1940
1940
1943
1948
1956
1962
1967
1970
1976
1978
1980
1979
1978
1976
1974
1974
1974
1974
1974
1975
1975
1973
1968
1964
1958
1951
1944
1938
1936
1938
1940
1943
1947
1953
1959
1969
1977
1986
1994
2005
2019
2036
2057
2083
2114
2147
2184
2228
2275
2323
2366
2406
2440
2466
2486
2501
2514
2521
2518
2504
2482
2446
2399
2343
2278
2200
2110
2006
1899
1784
1669
1552
1443
1346
1268
1209
1174
1166
1176
1204
1245
1297
1356
1418
1488
1561
1628
1696
1762
1823
1877
1927
1970
2003
2027
2043
2054
2055
2052
2050
2042
2034
2021
2010
1997
1985
1974
1965
1963
1962
1961
1962
1967
1972
1979
1988
2001
2014
2027
2034
2039
2041
2040
2041
2044
2044
2041
2039
2035
2029
2023
2020
2018
2018
2017
2019
2025
2029
2035
2041
2046
2053
2056
2055
2056
2052
2049
2042
2039
2036
2034
2035
2036
2038
2042
2043
2048
2053
2057
2060
2064
2070
2076
2080
2082
2083
2084
2082
2080
2073
2066
2064
2062
2065
2067
2072
2078
2084
2087
2096
2104
2112
2117
2122
2128
2131
2134
2136
2138
2138
2138
2138
2137
2136
2138
2138
2140
2138
2134
2130
2125
2117
2108
2104
2106
2109
2116
2122
2129
2137
2142
2144
2143
2141
2135
2130
2128
2127
2128
2132
2134
2141
2145
2152
2158
2167
2174
2180
2187
2190
2192
2191
2190
2191
2193
2197
2202
2206
2208
2208
2206
2206
2208
2208
2211
2214
2220
2230
2243
2257
2270
2278
2284
2290
2291
2290
2286
2281
2274
2266
2258
2254
2251
2253
2261
2268
2282
2296
2314
2330
2344
2356
2367
2376
2384
2388
2395
2400
2401
2404
2407
2408
2408
2410
2412
2412
2418
2424
2433
2444
2454
2461
2467
2470
2470
2471
2473
2478
2485
2496
2509
2523
2538
2556
2572
2586
2598
2608
2615
2620
2622
2626
2632
2640
2650
2660
2666
2668
2668
2667
2668
2666
2666
2668
2670
2676
2682
2689
2694
2700
2704
2706
2711
2717
2724
2730
2738
2742
2744
2745
2746
2748
2748
2747
2738
2729
2716
2700
2684
2668
2654
2640
2627
2613
2600
2585
2573
2560
2548
2537
2526
2514
2500
2486
2474
2455
2434
2409
2387
2364
2342
2320
2300
2280
2258
2237
2215
2192
2167
2146
2126
2108
2092
2077
2064
2051
2036
2023
2012
2002
1994
1994
1977
1969
1961
1956
1954
1953
1953
1952
1949
1941
1928
1913
1901
1888
1878
1869
1863
1857
1851
1850
1851
1851
1849
1849
1848
1845
1842
1842
1842
1842
1842
1844
1846
1850
1854
1860
1868
1874
1876
1876
1872
1865
1853
1843
1835
1826
1812
1820
1820
1824
1828
1832
1836
1834
1834
1834
1836
1838
1839
1839
1838
1838
1838
1838
1841
1843
1848
1853
1856
1858
1858
1858
1859
1860
1858
1856
1858
1856
1852
1850
1848
1844
1840
1836
1834
1833
1829
1830
1832
1837
1842
1847
1851
1855
1858
1862
1867
1872
1876
1881
1883
1885
1885
1886
1891
1894
1895
1894
1888
1881
1871
1865
1858
1854
1852
1850
1853
1854
1855
1858
1864
1870
1877
1882
1887
1890
1892
1892
1894
1893
1894
1893
1892
1891
1892
1893
1894
1894
1889
1884
1884
1885
1887
1888
1891
1890
1887
1885
1885
1886
1884
1880
1876
1871
1869
1865
1864
1864
1866
1866
1871
1875
1878
1880
1880
1883
1887
1890
1894
1900
1901
1901
1901
1900
1897
1894
1891
1888
1884
1882
1881
1882
1881
1881
1881
1882
1883
1884
1888
1891
1899
1906
1913
1917
1917
1916
1914
1911
1910
1909
1907
1905
1900
1896
1894
1889
1884
1880
1876
1874
1874
1874
1878
1882
1884
1888
1891
1893
1891
1890
1890
1890
1893
1895
1899
1903
1906
1910
1909
1905
1899
1895
1894
1896
1899
1904
1912
1916
1922
1922
1922
1919
1915
1912
1907
1901
1896
1891
1888
1886
1882
1880
1880
1878
1880
1883
1889
1896
1900
1903
1905
1904
1903
1903
1902
1902
1903
1903
1903
1904
1906
1907
1909
1911
1910
1912
1915
1917
1919
1919
1919
1919
1919
1922
1925
1929
1932
1937
1940
1946
1950
1953
1952
1947
1938
1929
1921
1913
1907
1905
1903
1902
1902
1905
1908
1912
1916
1918
1922
1923
1922
1924
1925
1929
1932
1933
1935
1939
1942
1946
1951
1954
1955
1956
1954
1948
1942
1935
1933
1933
1934
1936
1940
1942
1941
1938
1936
1933
1927
1924
1919
1919
1921
1927
1934
1941
1944
1947
1947
1945
1942
1941
1941
1942
1944
1946
1947
1946
1942
1940
1938
1938
1938
1942
1949
1951
1953
1953
1954
1954
1954
1954
1956
1961
1962
1964
1965
1962
1958
1956
1956
1955
1958
1961
1965
1966
1966
1963
1961
1959
1959
1957
1958
1958
1957
1959
1960
1960
1960
1962
1965
1967
1966
1964
1964
1962
1959
1957
1955
1954
1951
1953
1957
1963
1970
1975
1981
1982
1981
1978
1978
1978
1974
1972
1966
1964
1960
1958
1957
1959
1960
1964
1967
1969
1970
1973
1977
1980
1982
1988
1989
1992
1993
1994
1998
2004
2009
2014
2019
2019
2019
2018
2021
2021
2024
2026
2031
2038
2044
2052
2059
2065
2068
2068
2066
2065
2063
2060
2062
2065
2068
2071
2074
2077
2082
2092
2112
2131
2155
2178
2200
2221
2240
2257
2272
2279
2278
2272
2264
2250
2234
2219
2202
2184
2167
2150
2137
2123
2112
2100
2095
2089
2085
2085
2086
2089
2091
2094
2097
2098
2096
2095
2094
2091
2087
2084
2080
2075
2070
2066
2062
2060
2056
2051
2046
2039
2028
2020
2010
1998
1987
1979
1971
1964
1958
1951
1949
1950
1946
1944
1941
1937
1934
1934
1934
1938
1938
1942
1949
1954
1956
1955
1954
1952
1947
1950
1948
1949
1946
1943
1941
1936
1934
1932
1932
1936
1940
1941
1942
1944
1945
1948
1950
1950
1948
1945
1943
1939
1935
1933
1932
1932
1932
1934
1937
1941
1946
1956
1967
1979
1989
2001
2018
2044
2076
2114
2158
2202
2249
2293
2336
2374
2402
2424
2446
2460
2472
2477
2474
2462
2438
2403
2360
2305
2244
2172
2092
2001
1904
1798
1688
1574
1461
1357
1274
1211
1172
1155
1158
1179
1212
1256
1310
1369
1435
1502
1576
1647
1716
1779
1838
1887
1928
1961
1986
2002
2012
2021
2026
2025
2021
2015
2009
2001
1990
1979
1972
1971
1970
1973
1976
1978
1978
1979
1978
1976
1974
1974
1973
1974
1977
1978
1980
1982
1986
1988
1993
1997
2002
2011
2020
2026
2029
2030
2030
2029
2026
2021
2021
2020
2019
2015
2015
2014
2014
2015
2017
2018
2019
2019
2022
2025
2028
2031
2037
2042
2048
2050
2051
2050
2050
2050
2053
2054
2055
2057
2059
2062
2066
2068
2066
2065
2059
2056
2056
2056
2056
2060
2064
2067
2069
2070
2075
2076
2078
2078
2080
2082
2085
2091
2097
2100
2101
2101
2102
2104
2107
2112
2118
2122
2128
2132
2135
2135
2132
2130
2126
2125
2124
2125
2123
2126
2128
2129
2130
2130
2131
2131
2130
2128
2127
2128
2129
2133
2141
2150
2162
2172
2181
2190
2195
2199
2204
2212
2215
2220
2220
2222
2224
2222
2219
2216
2216
2217
2218
2220
2221
2222
2223
2223
2226
2231
2234
2238
2242
2246
2248
2252
2257
2263
2268
2272
2280
2287
2297
2308
2318
2328
2336
2340
2342
2342
2340
2338
2338
2340
2344
2350
2358
2369
2381
2394
2408
2422
2437
2448
2458
2466
2472
2482
2488
2492
2494
2494
2498
2500
2504
2510
2520
2530
2540
2552
2565
2576
2588
2599
2610
2615
2620
2622
2630
2637
2644
2652
2658
2663
2664
2664
2668
2671
2675
2678
2682
2684
2688
2692
2694
2698
2698
2700
2704
2708
2711
2714
2720
2727
2733
2738
2742
2742
2743
2746
2747
2746
2742
2738
2730
2720
2706
2697
2689
2681
2670
2657
2642
2622
2601
2577
2552
2527
2502
2480
2458
2438
2418
2396
2375
2354
2336
2316
2299
2282
2266
2252
2239
2225
2209
2193
2178
2166
2153
2138
2123
2108
2091
2074
2060
2043
2031
2022
2014
2009
2002
1994
1986
1974
1964
1954
1944
1933
1919
1910
1903
1899
1896
1894
1892
1888
1884
1878
1873
1867
1860
1854
1848
1844
1838
1835
1831
1830
1831
1836
1842
1846
1850
1853
1856
1860
1867
1874
1881
1881
1879
1874
1868
1861
1853
1850
1846
1845
1845
1846
1847
1847
1844
1843
1843
1844
1844
1842
1841
1837
1834
1834
1833
1834
1835
1836
1841
1845
1849
1852
1853
1853
1854
1857
1858
1855
1853
1852
1854
1861
1868
1877
1884
1888
1886
1884
1879
1874
1869
1868
1869
1874
1876
1875
1873
1872
1868
1865
1864
1862
1861
1861
1863
1865
1867
1868
1870
1870
1872
1874
1878
1878
1880
1884
1891
1896
1898
1898
1897
1893
1890
1886
1887
1884
1882
1883
1885
1886
1889
1891
1893
1894
1894
1894
1893
1894
1893
1895
1898
1901
1902
1906
1910
1914
1916
1918
1919
1921
1918
1917
1914
1909
1899
1891
1884
1878
1877
1876
1876
1876
1875
1876
1877
1881
1883
1890
1896
1900
1903
1905
1906
1907
1908
1908
1910
1910
1912
1913
1913
1910
1904
1903
1902
1904
1908
1913
1917
1918
1917
1912
1907
1901
1899
1902
1906
1910
1912
1914
1915
1915
1916
1917
1918
1916
1916
1915
1918
1919
1922
1923
1919
1917
1913
1910
1907
1904
1900
1898
1898
1900
1902
1905
1910
1913
1916
1916
1919
1923
1926
1928
1932
1934
1932
1931
1931
1931
1931
1929
1930
1931
1931
1928
1928
1926
1920
1917
1912
1907
1904
1903
1906
1909
1914
1918
1923
1926
1926
1924
1926
1928
1931
1935
1940
1943
1946
1950
1951
1950
1947
1946
1945
1943
1944
1943
1943
1942
1941
1938
1940
1944
1948
1950
1953
1954
1955
1954
1954
1951
1948
1944
1945
1946
1949
1951
1952
1951
1947
1944
1941
1938
1934
1931
1930
1931
1930
1933
1940
1947
1953
1957
1960
1960
1954
1950
1948
1945
1943
1943
1942
1944
1946
1949
1950
1952
1950
1949
1949
1949
1950
1950
1955
1958
1960
1963
1968
1970
1971
1971
1969
1965
1963
1959
1960
1961
1963
1963
1959
1954
1950
1948
1949
1949
1952
1960
1970
1977
1983
1990
1997
2004
2006
2005
2004
1998
1994
1990
1989
1988
1986
1983
1981
1976
1977
1976
1979
1982
1983
1988
1992
1994
1992
1990
1987
1987
1987
1989
1995
1999
1997
1990
1985
1976
1971
1969
1971
1973
1974
1977
1978
1982
1984
1986
1988
1988
1987
1986
1989
1992
1996
1999
2003
2002
1997
1993
1989
1985
1982
1981
1979
1977
1974
1973
1974
1975
1978
1982
1988
1997
2003
2009
2017
2020
2020
2017
2011
2002
1994
1990
1988
1988
1991
1994
1997
1999
2001
2000
2002
2003
2003
2005
2008
2010
2009
2010
2009
2007
2006
2006
2007
2006
2004
2004
2003
2007
2010
2011
2014
2013
2014
2018
2022
2029
2036
2043
2049
2054
2060
2068
2073
2074
2073
2074
2072
2072
2074
2074
2076
2078
2076
2077
2078
2080
2084
2091
2100
2112
2125
2144
2163
2183
2200
2214
2232
2247
2262
2273
2282
2286
2284
2280
2276
2269
2258
2246
2232
2215
2198
2181
2168
2154
2139
2129
2123
2119
2117
2120
2126
2132
2133
2134
2133
2132
2132
2132
2132
2132
2130
2128
2126
2125
2120
2117
2112
2104
2094
2082
2071
2060
2050
2039
2032
2024
2015
2005
1996
1984
1977
1970
1964
1959
1956
1953
1951
1950
1949
1950
1952
1953
1957
1959
1962
1974
1975
1983
1991
1999
2005
2014
2019
2020
2015
2004
1993
1980
1974
1968
1963
1957
1954
1954
1957
1960
1964
1966
1969
1968
1968
1966
1963
1958
1956
1955
1957
1960
1960
1961
1962
1965
1970
1977
1985
1996
2009
2021
2043
2070
2102
2138
2177
2219
2263
2311
2357
2397
2430
2458
2476
2486
2492
2495
2493
2483
2468
2444
2410
2368
2315
2253
2180
2094
1996
1890
1777
1658
1535
1418
1312
1225
1158
1120
1107
1116
1144
1188
1244
1308
1378
1451
1528
1606
1683
1757
1831
1896
1954
2001
2039
2068
2086
2098
2103
2100
2089
2072
2052
2029
2015
2004
1998
1995
1996
2004
2010
2021
2029
2035
2039
2038
2033
2028
2027
2026
2026
2026
2027
2028
2029
2031
2034
2038
2038
2038
2037
2037
2037
2037
2038
2034
2030
2030
2030
2033
2036
2040
2044
2047
2049
2053
2056
2058
2059
2061
2064
2066
2067
2069
2073
2076
2078
2082
2084
2086
2087
2086
2088
2090
2086
2087
2089
2087
2086
2084
2086
2086
2086
2082
2083
2083
2086
2090
2096
2100
2102
2101
2103
2104
2108
2112
2115
2118
2120
2120
2119
2118
2116
2116
2117
2116
2115
2116
2119
2124
2130
2139
2146
2148
2147
2146
2144
2140
2140
2138
2140
2144
2146
2153
2159
2165
2170
2178
2182
2184
2188
2187
2184
2179
2174
2172
2170
2168
2168
2171
2176
2180
2185
2188
2193
2196
2198
2198
2202
2202
2204
2206
2212
2219
2224
2234
2244
2254
2266
2278
2287
2288
2285
2280
2277
2275
2272
2269
2268
2269
2272
2278
2284
2290
2294
2300
2311
2320
2332
2340
2351
2360
2371
2379
2388
2390
2389
2390
2395
2402
2409
2416
2427
2437
2447
2457
2467
2471
2475
2479
2483
2488
2492
2497
2503
2509
2516
2525
2535
2548
2560
2572
2584
2593
2600
2606
2612
2619
2626
2633
2639
2644
2649
2655
2662
2663
2665
2666
2667
2670
2676
2681
2689
2698
2706
2716
2724
2734
2740
2746
2752
2754
2754
2752
2749
2745
2743
2742
2744
2747
2749
2751
2754
2754
2754
2754
2755
2750
2745
2735
2724
2708
2692
2674
2658
2642
2624
2604
2586
2569
2552
2536
2520
2505
2487
2466
2444
2421
2398
2374
2349
2325
2300
2275
2253
2230
2209
2190
2176
2162
2148
2137
2128
2121
2114
2107
2100
2089
2080
2066
2051
2032
2014
1997
1979
1962
1946
1935
1928
1924
1916
1908
1902
1896
1893
1889
1887
1884
1880
1879
1879
1880
1881
1882
1884
1883
1879
1872
1867
1860
1854
1848
1843
1841
1838
1839
1842
1847
1850
1855
1858
1859
1858
1858
1857
1856
1856
1857
1857
1854
1852
1852
1852
1850
1852
1850
1851
1851
1852
1854
1855
1856
1854
1856
1854
1852
1854
1856
1861
1862
1863
1860
1858
1853
1851
1852
1854
1856
1856
1857
1859
1860
1860
1861
1866
1871
1873
1877
1879
1879
1878
1880
1879
1878
1872
1868
1865
1863
1861
1860
1859
1858
1857
1857
1859
1862
1864
1864
1866
1868
1873
1880
1887
1894
1897
1897
1898
1897
1895
1892
1888
1886
1882
1880
1878
1876
1873
1874
1875
1882
1885
1889
1889
1890
1890
1888
1887
1886
1884
1882
1883
1887
1889
1893
1895
1899
1897
1897
1894
1892
1891
1892
1897
1901
1904
1906
1906
1904
1903
1900
1896
1889
1885
1880
1879
1879
1876
1877
1878
1879
1882
1886
1894
1900
1904
1906
1908
1904
1900
1893
1888
1884
1881
1881
1884
1889
1895
1903
1911
1908
1911
1910
1912
1911
1911
1910
1908
1908
1906
1904
1902
1898
1894
1890
1887
1886
1889
1893
1900
1906
1910
1914
1918
1922
1925
1929
1933
1939
1943
1944
1943
1939
1935
1930
1923
1917
1908
1903
1900
1899
1901
1901
1902
1902
1904
1908
1910
1912
1913
1912
1913
1916
1921
1928
1938
1946
1954
1956
1957
1956
1950
1942
1935
1928
1922
1915
1910
1906
1903
1901
1901
1901
1901
1903
1902
1905
1908
1911
1917
1922
1926
1930
1934
1939
1942
1945
1946
1945
1943
1941
1940
1939
1936
1936
1936
1936
1936
1938
1938
1939
1939
1940
1938
1938
1937
1938
1941
1943
1947
1948
1949
1948
1946
1944
1944
1945
1944
1942
1939
1931
1926
1928
1932
1938
1942
1949
1953
1955
1956
1955
1954
1954
1954
1957
1957
1956
1955
1952
1949
1947
1946
1948
1952
1953
1952
1951
1951
1952
1952
1949
1948
1944
1944
1942
1940
1940
1937
1936
1937
1939
1940
1943
1948
1951
1956
1960
1963
1969
1971
1976
1979
1979
1980
1981
1982
1982
1980
1979
1978
1973
1967
1960
1955
1951
1948
1948
1951
1953
1955
1959
1964
1968
1967
1966
1968
1973
1976
1978
1976
1976
1975
1976
1982
1986
1990
1996
1999
2001
2000
1998
1997
1999
2002
2009
2018
2028
2039
2048
2052
2050
2044
2039
2036
2033
2031
2031
2031
2034
2039
2046
2060
2073
2088
2106
2124
2140
2157
2174
2190
2201
2210
2216
2220
2220
2218
2211
2202
2186
2170
2154
2141
2128
2120
2113
2110
2112
2112
2114
2115
2114
2109
2104
2099
2092
2084
2077
2072
2068
2064
2061
2061
2062
2064
2068
2071
2072
2072
2070
2073
2070
2064
2053
2042
2032
2022
2011
2001
1989
1976
1964
1954
1944
1936
1929
1922
1917
1914
1914
1915
1918
1921
1926
1931
1936
1937
1938
1942
1944
1942
1941
1940
1939
1940
1946
1950
1952
1956
1958
1961
1964
1968
1970
1968
1963
1959
1957
1956
1955
1952
1948
1942
1935
1928
1921
1915
1912
1913
1917
1922
1926
1930
1938
1946
1956
1966
1979
1995
2011
2033
2060
2092
2125
2159
2194
2236
2276
2313
2346
2377
2401
2418
2436
2449
2461
2467
2468
2459
2442
2413
2372
2320
2253
2173
2080
1978
1869
1748
1625
1503
1389
1290
1211
1160
1132
1128
1145
1182
1236
1300
1372
1449
1522
1593
1660
1726
1788
1847
1900
1948
1989
2020
2046
2069
2080
2080
2076
2067
2055
2039
2024
2010
1997
1988
1984
1982
1983
1983
1987
1990
1993
1993
1996
1998
1999
1997
1996
1998
1999
2000
2000
2001
1998
1994
1990
1990
1992
1995
2000
2005
2010
2013
2020
2025
2027
2023
2018
2013
2009
2006
2006
2009
2013
2015
2019
2023
2025
2030
2030
2034
2035
2036
2043
2050
2056
2060
2068
2074
2077
2074
2071
2066
2060
2053
2045
2043
2041
2039
2041
2044
2049
2052
2056
2058
2059
2060
2061
2062
2059
2056
2054
2058
2065
2072
2082
2089
2098
2102
2106
2109
2108
2102
2095
2090
2087
2087
2085
2086
2083
2078
2074
2074
2075
2080
2082
2088
2091
2092
2092
2091
2092
2095
2101
2109
2115
2120
2129
2137
2144
2148
2153
2159
2160
2161
2160
2160
2158
2158
2159
2160
2161
2162
2163
2166
2169
2171
2175
2178
2181
2184
2187
2189
2193
2197
2200
2205
2204
2205
2208
2214
2221
2228
2240
2251
2258
2267
2280
2289
2296
2299
2298
2297
2295
2293
2295
2299
2302
2304
2306
2310
2314
2320
2329
2339
2353
2370
2384
2398
2406
2410
2410
2410
2407
2404
2404
2410
2416
2424
2432
2441
2449
2458
2469
2480
2492
2506
2519
2532
2540
2547
2554
2560
2565
2570
2574
2580
2583
2588
2594
2602
2602
2616
2624
2630
2634
2638
2642
2646
2650
2652
2655
2660
2666
2671
2677
2683
2687
2689
2692
2696
2696
2698
2700
2698
2695
2691
2688
2684
2680
2675
2668
2664
2655
2645
2629
2614
2598
2586
2576
2568
2561
2550
2536
2520
2501
2481
2460
2439
2416
2391
2368
2348
2328
2309
2291
2274
2254
2232
2216
2199
2185
2172
2162
2154
2145
2132
2118
2102
2084
2064
2044
2024
2006
1989
1973
1959
1946
1936
1926
1918
1911
1907
1903
1904
1904
1903
1903
1901
1898
1893
1890
1887
1882
1878
1874
1874
1873
1872
1870
1868
1865
1857
1850
1843
1836
1829
1825
1825
1825
1824
1826
1830
1833
1836
1839
1839
1840
1842
1841
1844
1847
1853
1861
1868
1872
1871
1868
1868
1867
1869
1873
1874
1873
1870
1867
1862
1856
1850
1845
1840
1835
1835
1840
1846
1852
1857
1857
1857
1858
1859
1860
1861
1860
1860
1860
1860
1859
1860
1860
1862
1862
1862
1861
1863
1865
1867
1869
1872
1878
1884
1887
1890
1889
1887
1883
1880
1875
1870
1868
1869
1871
1872
1876
1879
1880
1883
1885
1884
1884
1882
1882
1882
1883
1884
1887
1889
1889
1888
1887
1886
1885
1883
1880
1880
1880
1882
1885
1890
1896
1896
1898
1899
1899
1894
1893
1891
1890
1891
1892
1896
1898
1903
1908
1913
1913
1910
1908
1905
1900
1893
1885
1880
1877
1873
1874
1874
1875
1873
1872
1872
1874
1878
1881
1888
1894
1900
1903
1907
1905
1902
1901
1900
1899
1900
1902
1905
1906
1903
1902
1905
1904
1903
1903
1898
1894
1892
1890
1888
1886
1880
1876
1874
1872
1871
1872
1873
1873
1874
1874
1875
1877
1877
1878
1880
1879
1880
1880
1884
1887
1891
1895
1899
1902
1905
1906
1906
1907
1909
1915
1921
1926
1930
1934
1933
1929
1922
1914
1909
1905
1903
1902
1904
1906
1907
1908
1909
1911
1911
1909
1907
1907
1907
1909
1912
1914
1917
1918
1919
1920
1920
1919
1918
1915
1911
1907
1902
1902
1903
1908
1914
1921
1926
1930
1930
1928
1926
1926
1924
1921
1913
1905
1897
1893
1892
1896
1902
1906
1907
1907
1907
1908
1908
1910
1912
1917
1919
1925
1929
1934
1939
1942
1946
1945
1941
1937
1934
1929
1927
1925
1924
1921
1918
1922
1923
1924
1925
1927
1932
1935
1940
1942
1945
1944
1942
1939
1937
1935
1935
1938
1944
1949
1953
1956
1962
1963
1966
1970
1974
1977
1977
1974
1971
1964
1956
1949
1944
1936
1930
1923
1918
1917
1917
1924
1930
1936
1942
1950
1955
1958
1960
1961
1961
1959
1961
1963
1967
1970
1973
1973
1972
1968
1964
1958
1954
1952
1948
1945
1944
1943
1944
1948
1955
1962
1968
1974
1981
1987
1990
1996
2001
2003
2004
2004
2004
2006
2008
2012
2018
2024
2030
2035
2039
2038
2036
2030
2024
2018
2011
2006
2006
2012
2024
2041
2066
2088
2109
2132
2156
2177
2196
2210
2218
2220
2219
2217
2214
2208
2200
2194
2188
2184
2178
2176
2172
2163
2152
2140
2129
2114
2096
2082
2070
2058
2050
2046
2046
2049
2051
2054
2058
2062
2062
2065
2067
2070
2070
2070
2070
2068
2064
2060
2058
2054
2049
2041
2039
2031
2022
2012
2000
1986
1974
1965
1959
1955
1949
1944
1941
1936
1934
1933
1932
1930
1928
1926
1924
1926
1928
1931
1934
1936
1941
1946
1952
1956
1963
1972
1976
1978
1976
1974
1970
1961
1951
1942
1936
1933
1930
1931
1936
1937
1932
1929
1928
1928
1926
1925
1924
1924
1924
1929
1936
1944
1949
1956
1964
1975
1993
2015
2049
2084
2125
2164
2204
2248
2294
2342
2386
2427
2462
2493
2519
2540
2564
2584
2602
2609
2603
2585
2556
2512
2453
2383
2302
2208
2108
2002
1894
1782
1674
1578
1502
1442
1402
1384
1388
1407
1440
1480
1526
1576
1632
1693
1754
1812
1865
1912
1955
1991
2020
2042
2059
2069
2075
2074
2068
2059
2046
2031
2018
2001
1986
1973
1963
1957
1953
1953
1960
1967
1978
1989
1997
2002
2005
2004
2003
1999
1997
1996
1997
1996
1993
1988
1983
1980
1978
1979
1982
1980
1980
1978
1975
1974
1976
1981
1989
1995
2000
2005
2010
2015
2018
2019
2017
2014
2008
2003
2005
2004
2003
2004
2006
2010
2012
2014
2016
2017
2017
2018
2018
2022
2023
2025
2027
2030
2032
2034
2040
2044
2052
2059
2068
2080
2088
2092
2091
2081
2068
2058
2054
2053
2054
2057
2060
2061
2062
2062
2062
2063
2062
2064
2064
2064
2065
2069
2072
2076
2078
2080
2083
2084
2089
2094
2103
2112
2119
2125
2130
2132
2129
2126
2122
2117
2112
2109
2105
2102
2103
2104
2108
2109
2108
2112
2113
2114
2119
2127
2137
2148
2158
2165
2169
2173
2176
2176
2177
2176
2176
2176
2176
2179
2182
2186
2193
2200
2206
2214
2221
2226
2228
2229
2228
2228
2227
2226
2230
2234
2239
2246
2254
2259
2263
2267
2272
2278
2287
2294
2300
2306
2312
2318
2328
2340
2352
2366
2384
2400
2413
2420
2422
2419
2416
2412
2410
2411
2414
2417
2423
2429
2434
2440
2448
2458
2468
2481
2495
2507
2517
2527
2538
2545
2556
2566
2576
2585
2592
2601
2606
2609
2610
2612
2614
2614
2614
2614
2618
2622
2629
2641
2655
2670
2681
2689
2691
2690
2688
2685
2686
2684
2684
2686
2688
2686
2680
2674
2667
2658
2646
2636
2631
2625
2622
2620
2618
2614
2607
2597
2586
2576
2562
2546
2528
2508
2484
2458
2434
2410
2389
2369
2351
2330
2311
2292
2275
2260
2248
2238
2229
2216
2204
2192
2181
2171
2162
2151
2138
2124
2105
2089
2073
2058
2041
2029
2018
2004
1986
1967
1952
1938
1928
1923
1921
1918
1918
1919
1918
1915
1910
1908
1908
1909
1910
1912
1912
1912
1907
1902
1894
1882
1872
1860
1850
1843
1840
1838
1838
1839
1842
1845
1847
1850
1852
1854
1857
1862
1865
1866
1865
1862
1862
1865
1868
1871
1875
1875
1876
1873
1872
1875
1877
1877
1874
1872
1870
1866
1863
1864
1865
1864
1862
1858
1852
1849
1850
1855
1862
1866
1870
1874
1878
1876
1873
1870
1868
1866
1864
1864
1863
1862
1860
1862
1866
1869
1870
1870
1870
1870
1868
1868
1868
1869
1871
1871
1873
1877
1871
1884
1891
1898
1902
1903
1902
1898
1894
1893
1893
1893
1891
1891
1891
1891
1890
1892
1893
1898
1900
1901
1898
1897
1894
1894
1895
1897
1896
1896
1895
1892
1889
1886
1885
1885
1888
1891
1896
1897
1896
1896
1896
1894
1894
1894
1895
1894
1894
1894
1895
1896
1895
1896
1897
1899
1901
1904
1911
1915
1917
1919
1918
1916
1914
1912
1911
1914
1912
1910
1909
1907
1906
1903
1901
1899
1898
1898
1900
1905
1910
1911
1913
1910
1904
1896
1888
1882
1876
1878
1880
1886
1893
1902
1910
1917
1919
1924
1924
1924
1926
1926
1925
1919
1916
1912
1910
1907
1906
1905
1908
1913
1916
1919
1919
1921
1919
1915
1913
1911
1909
1908
1906
1900
1898
1898
1901
1901
1901
1900
1902
1901
1900
1900
1897
1898
1901
1907
1915
1919
1924
1926
1927
1924
1924
1925
1924
1921
1916
1909
1904
1901
1895
1892
1892
1894
1896
1900
1905
1906
1906
1906
1910
1915
1919
1929
1934
1937
1936
1935
1936
1935
1933
1928
1925
1918
1912
1909
1907
1907
1906
1905
1906
1910
1916
1923
1929
1938
1946
1952
1956
1956
1953
1952
1950
1949
1948
1948
1952
1954
1957
1960
1965
1965
1961
1955
1946
1938
1928
1922
1921
1922
1925
1929
1931
1934
1938
1942
1948
1951
1952
1952
1950
1944
1942
1942
1945
1948
1951
1957
1967
1974
1974
1972
1968
1961
1954
1946
1941
1936
1933
1930
1934
1938
1943
1948
1952
1958
1963
1966
1967
1965
1962
1960
1958
1958
1956
1953
1951
1950
1952
1956
1957
1959
1960
1962
1966
1968
1972
1973
1975
1977
1974
1972
1966
1961
1958
1956
1951
1948
1948
1950
1954
1956
1958
1963
1972
1977
1978
1978
1979
1977
1974
1971
1968
1966
1967
1969
1977
1983
1990
1994
1997
1996
1993
1989
1986
1983
1978
1973
1970
1967
1964
1963
1962
1960
1961
1960
1960
1961
1964
1966
1970
1975
1981
1988
1993
1998
1999
2000
2001
1998
1996
1994
1995
1995
2000
2006
2010
2013
2013
2010
2007
2006
2006
2007
2011
2014
2018
2021
2022
2024
2024
2024
2028
2033
2038
2040
2042
2043
2043
2044
2046
2049
2052
2057
2069
2082
2099
2117
2136
2152
2167
2182
2197
2209
2216
2220
2225
2225
2220
2213
2204
2193
2178
2164
2152
2138
2126
2117
2111
2106
2106
2106
2109
2110
2112
2112
2112
2109
2109
2107
2104
2100
2096
2094
2093
2091
2088
2086
2084
2081
2076
2073
2068
2062
2053
2040
2031
2019
2006
1995
1986
1979
1975
1974
1973
1968
1960
1951
1948
1946
1945
1946
1950
1952
1952
1952
1953
1954
1952
1954
1956
1956
1958
1958
1958
1956
1952
1952
1950
1954
1956
1961
1968
1974
1978
1981
1986
1986
1982
1978
1975
1969
1963
1955
1950
1944
1940
1938
1940
1942
1947
1950
1950
1948
1944
1944
1943
1944
1947
1950
1958
1967
1983
2002
2032
2069
2114
2169
2229
2292
2356
2418
2474
2522
2560
2593
2622
2649
2674
2692
2700
2693
2670
2636
2588
2530
2462
2382
2296
2201
2099
1992
1884
1774
1672
1586
1521
1480
1459
1460
1481
1516
1560
1610
1666
1721
1777
1828
1873
1911
1944
1972
1993
2009
2020
2026
2029
2028
2030
2027
2022
2012
2000
1988
1974
1964
1956
1950
1947
1947
1949
1954
1958
1960
1963
1964
1968
1972
1976
1980
1983
1986
1985
1984
1988
1992
1996
1996
1994
1989
1986
1986
1986
1983
1981
1978
1975
1972
1968
1966
1968
1971
1974
1978
1983
1988
1992
1996
2000
2004
2007
2012
2020
2028
2038
2050
2058
2064
2061
2056
2048
2037
2027
2018
2010
2004
2000
1999
1999
1996
1994
1994
1992
1995
2001
2008
2016
2026
2024
2040
2047
2052
2056
2059
2066
2070
2071
2073
2074
2074
2076
2076
2078
2084
2086
2087
2086
2080
2072
2065
2061
2056
2054
2053
2052
2056
2056
2057
2060
2065
2069
2076
2080
2083
2086
2091
2091
2088
2085
2082
2082
2082
2085
2089
2094
2100
2106
2113
2123
2133
2144
2154
2163
2169
2170
2169
2163
2158
2149
2144
2143
2140
2138
2139
2142
2146
2152
2158
2165
2171
2176
2178
2179
2179
2180
2182
2186
2192
2201
2212
2228
2242
2253
2263
2269
2274
2278
2282
2284
2284
2283
2282
2281
2279
2278
2280
2281
2286
2292
2300
2308
2315
2320
2325
2332
2337
2342
2345
2351
2359
2371
2382
2397
2411
2422
2435
2449
2464
2477
2486
2491
2494
2498
2504
2511
2514
2516
2511
2508
2503
2498
2495
2498
2504
2512
2526
2542
2556
2570
2583
2595
2606
2612
2616
2618
2620
2620
2623
2624
2627
2630
2636
2641
2646
2648
2650
2651
2649
2644
2642
2639
2632
2625
2617
2610
2600
2590
2578
2566
2556
2548
2542
2538
2528
2517
2508
2492
2476
2459
2442
2424
2407
2388
2368
2350
2331
2310
2293
2277
2262
2246
2231
2213
2192
2170
2151
2135
2122
2113
2106
2099
2090
2076
2060
2039
2020
2005
1994
1989
1985
1981
1974
1968
1961
1953
1942
1933
1921
1910
1900
1890
1882
1874
1870
1871
1872
1872
1874
1873
1873
1874
1875
1876
1878
1879
1879
1878
1872
1864
1854
1845
1832
1825
1821
1821
1819
1818
1820
1824
1828
1829
1832
1834
1837
1842
1844
1850
1852
1852
1850
1845
1842
1842
1843
1847
1848
1849
1849
1850
1846
1839
1830
1825
1819
1814
1816
1817
1820
1822
1822
1824
1824
1825
1827
1833
1837
1838
1842
1848
1850
1852
1853
1854
1854
1855
1858
1862
1865
1868
1872
1876
1879
1876
1872
1868
1862
1858
1854
1853
1854
1858
1861
1866
1868
1868
1862
1856
1852
1846
1844
1843
1842
1842
1842
1846
1848
1850
1857
1864
1871
1875
1876
1879
1882
1885
1889
1893
1895
1898
1899
1902
1900
1896
1891
1888
1886
1884
1880
1878
1878
1879
1878
1875
1875
1877
1881
1887
1891
1896
1898
1897
1894
1890
1886
1885
1882
1878
1873
1873
1868
1864
1860
1862
1862
1864
1869
1873
1877
1882
1886
1891
1893
1897
1900
1902
1903
1902
1905
1908
1908
1905
1901
1896
1891
1888
1890
1891
1893
1892
1895
1898
1899
1901
1901
1902
1902
1901
1901
1903
1904
1908
1911
1914
1914
1914
1916
1916
1914
1911
1907
1902
1895
1889
1885
1884
1882
1881
1882
1886
1885
1885
1889
1892
1898
1902
1908
1913
1915
1916
1917
1919
1918
1917
1917
1915
1909
1902
1894
1890
1887
1886
1887
1891
1892
1893
1894
1895
1893
1887
1884
1880
1878
1876
1878
1884
1890
1895
1900
1909
1913
1918
1922
1926
1925
1922
1918
1914
1909
1905
1902
1904
1908
1912
1916
1922
1926
1931
1935
1937
1939
1937
1935
1934
1932
1929
1928
1927
1927
1929
1930
1932
1934
1935
1935
1935
1932
1928
1924
1921
1919
1918
1919
1924
1927
1930
1932
1935
1940
1943
1948
1954
1958
1957
1956
1950
1941
1929
1921
1917
1915
1914
1917
1920
1925
1928
1930
1934
1936
1934
1936
1938
1942
1945
1950
1954
1958
1960
1963
1966
1966
1965
1962
1961
1963
1962
1965
1964
1967
1966
1967
1969
1969
1964
1960
1955
1952
1947
1949
1951
1952
1952
1956
1961
1964
1965
1965
1966
1965
1964
1964
1962
1962
1964
1966
1970
1974
1976
1983
1989
1989
1986
1978
1975
1971
1966
1964
1962
1958
1956
1955
1951
1948
1944
1940
1941
1943
1947
1955
1963
1973
1982
1991
1998
2000
2000
2000
2000
1999
1995
1990
1985
1976
1967
1962
1962
1969
1974
1980
1986
1991
1992
1990
1990
1988
1986
1983
1982
1980
1978
1978
1978
1980
1982
1984
1987
1988
1986
1981
1979
1975
1974
1975
1978
1982
1986
1992
1996
1996
1995
1994
1995
1997
1997
1996
1995
1993
1992
1991
1993
1993
1994
1999
2004
2012
2016
2021
2023
2023
2019
2015
2010
2004
2003
2003
2007
2012
2013
2012
2006
1998
1989
1983
1979
1978
1975
1977
1984
1993
2002
2009
2013
2013
2011
2006
2005
2002
2000
2001
2003
2002
2002
2004
2007
2012
2017
2023
2026
2030
2033
2032
2030
2028
2024
2021
2018
2015
2011
2008
2006
2007
2008
2009
2013
2016
2018
2020
2019
2018
2017
2016
2016
2018
2019
2021
2026
2028
2029
2030
2031
2033
2033
2031
2030
2029
2028
2030
2035
2041
2047
2056
2065
2073
2080
2086
2092
2096
2098
2097
2098
2098
2096
2095
2097
2102
2109
2120
2134
2150
2169
2192
2213
2228
2240
2249
2254
2255
2249
2239
2230
2220
2209
2200
2192
2185
2178
2172
2167
2162
2157
2150
2145
2141
2135
2130
2127
2126
2125
2129
2132
2134
2135
2134
2133
2131
2128
2124
2120
2113
2108
2104
2100
2098
2096
2095
2091
2088
2080
2070
2062
2054
2043
2033
2022
2010
2001
1994
1989
1982
1975
1971
1970
1972
1975
1980
1986
1990
1996
2001
2004
2004
2003
2002
2002
2000
1996
1993
1993
1995
1996
1997
1998
1997
1994
1995
1998
2000
1999
2000
2000
2000
2001
2005
2009
2012
2012
2013
2015
2016
2013
2008
2002
1996
1989
1986
1987
1986
1984
1981
1979
1975
1967
1959
1952
1947
1943
1945
1952
1962
1974
1985
1999
2014
2033
2061
2094
2133
2177
2224
2276
2331
2386
2438
2484
2521
2552
2580
2612
2636
2656
2667
2666
2652
2624
2580
2522
2452
2370
2281
2187
2092
1992
1888
1783
1681
1589
1513
1461
1434
1430
1444
1468
1501
1535
1575
1620
1668
1716
1772
1826
1881
1928
1973
2010
2037
2055
2064
2067
2065
2056
2045
2033
2021
2007
2000
1993
1985
1976
1968
1962
1960
1960
1963
1966
1972
1978
1985
1994
2002
2006
2011
2018
2021
2022
2020
2019
2019
2018
2019
2019
2019
2020
2022
2025
2026
2023
2020
2018
2018
2015
2012
2011
2012
2012
2014
2016
2020
2023
2026
2028
2031
2031
2032
2034
2034
2035
2036
2040
2042
2048
2053
2060
2069
2072
2075
2077
2076
2072
2068
2064
2057
2049
2045
2046
2049
2054
2060
2068
2074
2077
2080
2083
2084
2085
2083
2080
2078
2077
2079
2081
2084
2084
2086
2088
2089
2086
2083
2080
2075
2070
2069
2070
2074
2078
2082
2086
2089
2090
2093
2095
2097
2097
2100
2102
2106
2108
2110
2112
2112
2113
2116
2120
2124
2131
2136
2141
2141
2140
2139
2137
2136
2136
2136
2139
2145
2153
2162
2170
2174
2176
2182
2189
2196
2202
2206
2204
2199
2190
2180
2173
2170
2173
2180
2189
2199
2208
2215
2220
2222
2224
2224
2224
2226
2229
2233
2238
2245
2256
2269
2284
2294
2300
2304
2306
2304
2306
2310
2317
2320
2325
2328
2331
2334
2336
2342
2349
2356
2361
2368
2373
2379
2389
2398
2408
2419
2428
2436
2443
2451
2458
2467
2475
2483
2488
2490
2492
2493
2492
2498
2505
2516
2530
2544
2560
2571
2583
2588
2596
2601
2604
2612
2618
2628
2639
2647
2654
2658
2661
2660
2658
2653
2650
2648
2648
2644
2644
2642
2644
2644
2648
2652
2657
2658
2655
2655
2657
2657
2658
2656
2652
2646
2636
2626
2614
2600
2585
2573
2560
2545
2531
2519
2506
2492
2479
2466
2454
2439
2417
2394
2370
2344
2320
2296
2275
2253
2229
2210
2192
2174
2158
2142
2131
2120
2112
2103
2096
2085
2072
2060
2046
2034
2024
2015
2006
1998
1988
1979
1970
1960
1952
1945
1943
1942
1939
1937
1932
1925
1916
1907
1899
1891
1886
1881
1879
1880
1879
1878
1878
1875
1873
1873
1873
1875
1878
1881
1885
1887
1885
1884
1881
1876
1872
1871
1869
1870
1871
1874
1877
1879
1877
1871
1865
1860
1855
1852
1849
1843
1839
1840
1841
1842
1845
1846
1846
1845
1843
1844
1846
1853
1862
1871
1879
1886
1892
1898
1903
1899
1894
1886
1877
1869
1861
1854
1852
1849
1847
1845
1848
1850
1854
1860
1864
1869
1872
1875
1879
1880
1883
1884
1886
1885
1883
1880
1879
1878
1880
1884
1889
1894
1900
1905
1907
1907
1903
1901
1896
1891
1885
1881
1877
1875
1871
1870
1873
1872
1873
1874
1876
1876
1877
1874
1875
1877
1876
1881
1885
1895
1903
1912
1921
1929
1930
1931
1929
1925
1918
1913
1907
1902
1898
1891
1889
1890
1894
1900
1906
1908
1905
1900
1897
1892
1889
1890
1892
1894
1895
1899
1903
1906
1910
1911
1916
1922
1926
1930
1932
1929
1926
1921
1918
1912
1906
1903
1902
1902
1900
1899
1898
1895
1893
1893
1896
1899
1901
1905
1908
1910
1909
1908
1908
1909
1911
1912
1914
1914
1915
1916
1918
1917
1912
1906
1900
1895
1892
1893
1899
1907
1918
1929
1939
1948
1951
1951
1951
1946
1940
1936
1930
1928
1928
1925
1925
1922
1919
1915
1914
1914
1914
1914
1912
1906
1897
1890
1887
1888
1890
1895
1898
1901
1903
1905
1912
1918
1924
1926
1929
1930
1929
1928
1927
1922
1919
1919
1922
1928
1932
1938
1942
1940
1935
1930
1928
1927
1924
1922
1924
1925
1926
1924
1922
1920
1916
1915
1917
1919
1919
1923
1922
1919
1921
1922
1925
1926
1927
1928
1928
1927
1926
1924
1924
1923
1923
1924
1926
1927
1928
1932
1935
1938
1940
1940
1942
1943
1946
1946
1946
1945
1946
1946
1943
1940
1936
1936
1935
1934
1936
1936
1937
1935
1931
1928
1929
1935
1941
1948
1952
1954
1954
1958
1964
1967
1966
1960
1955
1945
1936
1932
1928
1927
1930
1933
1938
1942
1946
1947
1946
1945
1945
1946
1953
1960
1967
1970
1972
1972
1972
1972
1970
1968
1968
1967
1966
1965
1963
1960
1958
1956
1956
1957
1958
1957
1954
1952
1954
1957
1957
1958
1959
1960
1962
1964
1966
1966
1962
1962
1962
1959
1957
1956
1957
1956
1955
1956
1957
1958
1961
1963
1967
1968
1966
1964
1965
1966
1967
1970
1975
1975
1975
1973
1971
1970
1967
1964
1965
1965
1965
1964
1965
1967
1969
1972
1975
1974
1972
1969
1968
1965
1963
1964
1968
1971
1976
1982
1988
1992
1996
1999
2000
1998
1996
1994
1995
1996
1998
2001
2002
2002
2002
2000
1999
1998
1996
1993
1988
1983
1974
1970
1968
1965
1964
1964
1966
1967
1969
1970
1971
1972
1974
1977
1982
1985
1986
1990
1992
1993
1992
1990
1988
1987
1985
1986
1986
1988
1987
1988
1988
1985
1982
1981
1979
1978
1975
1972
1971
1969
1972
1971
1973
1978
1984
1992
1999
2007
2013
2018
2019
2015
2010
2004
2001
1997
1995
1996
2000
2000
2000
2000
1999
1996
1993
1993
1994
1995
1999
2001
2006
2010
2012
2012
2010
2007
2002
1996
1991
1986
1983
1983
1986
1986
1989
1995
2001
2006
2009
2014
2018
2017
2014
2012
2009
2005
2002
2003
2006
2008
2009
2012
2019
2028
2036
2043
2052
2058
2064
2069
2074
2074
2074
2074
2074
2071
2068
2064
2064
2064
2064
2068
2070
2071
2071
2072
2074
2081
2089
2102
2114
2132
2149
2166
2185
2203
2218
2235
2249
2260
2267
2270
2270
2264
2250
2236
2219
2204
2190
2176
2163
2150
2142
2136
2133
2130
2130
2134
2136
2137
2136
2134
2134
2137
2136
2140
2142
2141
2134
2128
2124
2119
2114
2109
2106
2101
2092
2084
2080
2076
2071
2067
2061
2056
2052
2044
2039
2032
2023
2013
2005
1995
1988
1982
1977
1976
1976
1978
1980
1981
1980
1980
1980
1979
1978
1977
1976
1975
1976
1980
1983
1986
1988
1992
1996
1998
1997
1994
1990
1985
1979
1978
1979
1980
1982
1983
1985
1987
1983
1983
1978
1972
1965
1961
1955
1950
1935
1943
1948
1958
1971
1985
1995
2003
2006
2008
2011
2017
2026
2038
2052
2068
2089
2116
2152
2192
2239
2290
2345
2396
2442
2483
2518
2551
2578
2601
2615
2617
2606
2580
2539
2485
2421
2348
2268
2183
2094
2003
1911
1814
1710
1607
1510
1424
1356
1308
1281
1275
1288
1316
1356
1406
1463
1526
1594
1660
1723
1783
1840
1892
1934
1969
1994
2012
2023
2029
2030
2025
2019
2014
2008
2003
2000
1995
1994
1993
1994
1994
1999
2002
2005
2009
2009
2008
2008
2008
2009
2009
2008
2010
2012
2016
2020
2022
2025
2027
2026
2025
2026
2027
2030
2036
2039
2041
2042
2044
2047
2047
2045
2045
2046
2045
2049
2054
2060
2066
2069
2073
2076
2076
2074
2070
2066
2061
2054
2053
2053
2060
2066
2072
2079
2084
2088
2091
2092
2095
2094
2096
2097
2099
2102
2105
2109
2108
2106
2102
2099
2098
2099
2100
2102
2108
2107
2106
2106
2106
2102
2100
2099
2098
2097
2097
2100
2101
2104
2108
2110
2114
2119
2125
2132
2138
2142
2145
2147
2148
2148
2149
2151
2151
2148
2146
2145
2146
2151
2157
2164
2171
2177
2182
2188
2192
2196
2198
2196
2192
2186
2183
2180
2178
2177
2182
2190
2195
2200
2204
2208
2210
2212
2217
2224
2228
2230
2231
2234
2236
2238
2239
2242
2243
2242
2246
2247
2250
2255
2262
2269
2274
2282
2291
2296
2299
2300
2304
2305
2307
2306
2306
2308
2311
2314
2321
2328
2333
2345
2356
2366
2374
2380
2386
2392
2400
2408
2418
2426
2432
2436
2437
2439
2443
2446
2450
2456
2460
2464
2472
2484
2495
2507
2524
2541
2558
2571
2580
2587
2593
2596
2600
2604
2609
2612
2614
2617
2622
2628
2634
2637
2640
2641
2644
2652
2662
2672
2684
2696
2706
2712
2712
2710
2707
2702
2700
2699
2700
2702
2703
2704
2702
2701
2702
2704
2704
2701
2699
2698
2694
2691
2686
2682
2672
2660
2649
2633
2615
2597
2583
2568
2553
2538
2524
2511
2495
2478
2460
2444
2428
2410
2394
2378
2358
2336
2314
2293
2271
2249
2231
2216
2203
2190
2178
2163
2146
2132
2116
2101
2088
2072
2059
2048
2038
2027
2016
2006
1997
1986
1977
1967
1958
1949
1944
1940
1937
1932
1928
1925
1921
1916
1912
1909
1904
1898
1892
1886
1880
1875
1868
1864
1862
1859
1857
1858
1859
1860
1863
1864
1863
1860
1858
1854
1850
1848
1846
1846
1846
1846
1847
1850
1853
1856
1858
1860
1859
1858
1856
1859
1856
1853
1848
1844
1842
1840
1842
1843
1847
1854
1863
1869
1874
1875
1873
1870
1865
1860
1857
1854
1856
1858
1863
1868
1873
1875
1876
1876
1875
1872
1869
1871
1873
1878
1881
1883
1880
1875
1872
1868
1866
1863
1861
1863
1868
1873
1879
1887
1892
1893
1894
1895
1896
1899
1901
1902
1903
1901
1897
1892
1886
1880
1879
1882
1888
1890
1892
1895
1895
1895
1896
1897
1897
1896
1898
1901
1904
1904
1902
1896
1890
1885
1886
1888
1895
1902
1910
1917
1922
1925
1926
1925
1923
1919
1916
1917
1919
1921
1923
1924
1924
1924
1921
1921
1917
1914
1911
1910
1911
1914
1918
1922
1923
1923
1923
1923
1923
1924
1925
1925
1924
1920
1917
1917
1916
1917
1919
1922
1924
1923
1922
1919
1917
1919
1920
1924
1927
1928
1928
1931
1933
1936
1939
1939
1936
1930
1926
1926
1924
1923
1922
1926
1927
1932
1934
1937
1938
1940
1941
1940
1937
1931
1926
1926
1925
1924
1919
1917
1911
1908
1905
1905
1907
1908
1908
1908
1909
1909
1912
1914
1917
1920
1923
1926
1928
1932
1934
1937
1940
1940
1942
1946
1947
1946
1945
1943
1940
1938
1936
1935
1936
1938
1940
1943
1945
1946
1946
1950
1954
1956
1957
1955
1952
1950
1948
1947
1946
1944
1941
1937
1935
1939
1944
1950
1957
1962
1969
1975
1976
1977
1978
1975
1970
1963
1960
1952
1944
1934
1928
1926
1927
1929
1933
1938
1941
1942
1944
1945
1946
1948
1953
1959
1963
1968
1972
1975
1974
1972
1969
1962
1958
1952
1948
1947
1948
1949
1951
1954
1955
1957
1958
1959
1958
1958
1957
1957
1954
1953
1951
1954
1954
1953
1955
1954
1954
1952
1952
1951
1952
1953
1954
1958
1964
1972
1980
1987
1992
1995
1994
1992
1987
1983
1978
1974
1967
1962
1960
1958
1954
1952
1953
1954
1957
1958
1962
1967
1973
1980
1983
1986
1988
1987
1986
1988
1987
1986
1986
1984
1983
1984
1988
1993
1997
2000
2001
2002
1998
1992
1985
1978
1974
1972
1969
1969
1969
1968
1971
1975
1978
1982
1984
1987
1990
1994
1998
2002
2005
2004
2002
1998
1991
1983
1976
1970
1964
1961
1959
1964
1971
1980
1990
2000
2006
2007
2005
2003
1999
1996
1993
1990
1984
1977
1968
1962
1958
1959
1964
1973
1983
1990
1998
2007
2014
2020
2022
2023
2022
2020
2018
2015
2010
2008
2006
2004
2000
1998
1994
1996
1995
1994
1995
1998
1999
2003
2006
2012
2017
2018
2021
2023
2025
2023
2019
2019
2020
2021
2022
2023
2021
2021
2021
2021
2019
2015
2009
2004
2001
2000
1998
1997
1995
1994
1994
1996
1996
1997
1998
1999
1999
1998
1995
1991
1987
1985
1984
1988
1994
1999
2006
2013
2021
2028
2034
2040
2046
2050
2052
2056
2058
2061
2066
2070
2072
2074
2077
2078
2080
2078
2079
2081
2082
2080
2078
2081
2082
2088
2096
2105
2123
2138
2156
2178
2198
2217
2234
2248
2258
2267
2272
2277
2275
2272
2263
2254
2242
2228
2214
2203
2192
2180
2172
2166
2164
2161
2158
2154
2150
2143
2137
2130
2126
2121
2118
2118
2115
2113
2114
2118
2120
2120
2119
2118
2117
2114
2109
2106
2098
2088
2078
2064
2049
2031
2017
2004
1994
1982
1975
1970
1966
1964
1965
1968
1972
1976
1978
1977
1974
1969
1969
1974
1978
1983
1987
1991
1992
1992
1993
1994
1995
1994
1992
1991
1992
1990
1991
1988
1986
1983
1987
1992
1996
1998
2004
2007
2008
2004
2002
1997
1994
1989
1985
1980
1975
1970
1969
1972
1976
1978
1980
1985
1987
1991
1994
2000
2005
2015
2029
2046
2069
2093
2119
2151
2190
2229
2270
2312
2353
2390
2418
2443
2459
2468
2476
2480
2480
2471
2453
2431
2400
2362
2310
2248
2176
2089
1990
1886
1776
1658
1542
1431
1331
1247
1186
1148
1136
1145
1176
1222
1282
1348
1418
1490
1558
1625
1690
1753
1814
1872
1926
1971
2009
2043
2072
2092
2105
2112
2112
2110
2102
2093
2078
2064
2045
2029
2015
2005
1997
1993
1994
1995
1995
1996
1998
2002
2010
2017
2025
2032
2039
2044
2048
2054
2057
2058
2057
2054
2052
2051
2050
2051
2047
2044
2042
2043
2044
2044
2048
2052
2059
2066
2076
2083
2086
2086
2084
2081
2077
2073
2070
2066
2065
2064
2065
2067
2071
2076
2083
2090
2093
2096
2098
2099
2100
2102
2100
2096
2088
2083
2078
2076
2075
2072
2073
2075
2080
2084
2089
2094
2100
2105
2110
2117
2120
2125
2132
2140
2147
2152
2152
2151
2147
2142
2138
2138
2135
2133
2131
2131
2131
2128
2131
2131
2133
2133
2134
2136
2141
2147
2155
2162
2166
2167
2166
2167
2170
2170
2168
2166
2164
2164
2164
2167
2174
2182
2188
2193
2194
2192
2191
2190
2190
2190
2193
2199
2206
2212
2213
2216
2221
2224
2226
2227
2228
2227
2228
2229
2232
2234
2240
2246
2254
2264
2276
2289
2295
2300
2302
2302
2306
2309
2312
2316
2318
2318
2320
2322
2324
2328
2332
2336
2340
2344
2349
2356
2362
2368
2378
2388
2399
2407
2414
2420
2424
2428
2434
2438
2442
2445
2453
2465
2476
2488
2502
2515
2527
2538
2549
2558
2560
2562
2566
2572
2576
2580
2584
2588
2592
2596
2600
2606
2612
2618
2628
2640
2649
2656
2661
2664
2667
2671
2680
2689
2698
2707
2712
2714
2712
2707
2703
2700
2696
2694
2691
2691
2693
2694
2698
2706
2712
2717
2716
2714
2706
2698
2688
2679
2668
2656
2642
2627
2611
2596
2581
2565
2547
2532
2515
2499
2487
2474
2460
2444
2423
2402
2377
2354
2333
2310
2291
2272
2254
2234
2216
2201
2185
2172
2160
2148
2133
2120
2106
2095
2080
2064
2046
2028
2009
1993
1978
1968
1956
1948
1940
1936
1934
1933
1931
1931
1930
1925
1919
1915
1906
1898
1892
1888
1885
1882
1881
1880
1882
1879
1874
1870
1864
1859
1854
1853
1850
1850
1851
1852
1852
1854
1860
1864
1865
1862
1856
1853
1846
1839
1834
1832
1831
1832
1834
1834
1834
1833
1834
1838
1841
1840
1843
1846
1849
1850
1854
1858
1861
1860
1860
1858
1856
1858
1861
1865
1868
1872
1872
1875
1874
1873
1870
1871
1869
1868
1868
1868
1868
1867
1865
1866
1867
1867
1868
1870
1871
1873
1877
1880
1881
1881
1881
1882
1884
1880
1881
1882
1883
1884
1883
1881
1877
1871
1869
1871
1873
1876
1881
1890
1896
1901
1902
1901
1896
1890
1885
1878
1872
1867
1864
1865
1865
1862
1862
1864
1869
1876
1885
1893
1900
1905
1908
1910
1908
1904
1902
1898
1892
1880
1869
1862
1856
1853
1856
1862
1870
1876
1882
1890
1896
1902
1907
1911
1911
1909
1906
1906
1902
1900
1896
1893
1888
1886
1885
1886
1886
1887
1887
1890
1894
1899
1901
1905
1908
1908
1908
1907
1904
1902
1900
1899
1899
1898
1896
1896
1895
1892
1892
1888
1882
1878
1876
1876
1874
1874
1874
1876
1875
1872
1870
1871
1873
1877
1882
1888
1891
1895
1899
1906
1912
1919
1928
1936
1943
1943
1938
1928
1913
1898
1883
1872
1862
1855
1853
1857
1860
1866
1871
1878
1887
1894
1900
1902
1906
1908
1908
1910
1910
1911
1915
1919
1922
1919
1919
1917
1914
1909
1903
1901
1898
1897
1896
1896
1894
1893
1891
1888
1886
1889
1893
1899
1904
1909
1916
1921
1926
1933
1936
1940
1941
1940
1940
1938
1936
1934
1932
1930
1927
1921
1916
1914
1912
1910
1910
1913
1914
1918
1923
1931
1934
1935
1934
1935
1937
1939
1940
1941
1944
1950
1955
1959
1958
1956
1952
1947
1940
1933
1925
1918
1913
1910
1912
1919
1925
1932
1938
1945
1948
1951
1955
1957
1956
1956
1956
1955
1955
1951
1947
1944
1944
1942
1940
1942
1944
1943
1942
1939
1936
1929
1926
1926
1927
1929
1934
1938
1942
1945
1947
1950
1953
1956
1959
1963
1968
1973
1979
1981
1979
1972
1966
1960
1952
1946
1942
1941
1942
1945
1948
1951
1954
1957
1964
1972
1978
1980
1980
1978
1975
1969
1967
1964
1962
1958
1956
1956
1960
1966
1972
1975
1976
1974
1970
1967
1966
1964
1964
1964
1966
1970
1976
1979
1980
1978
1976
1972
1966
1959
1956
1953
1949
1949
1950
1952
1955
1957
1958
1961
1963
1966
1970
1973
1975
1975
1978
1981
1986
1990
1994
1997
1996
1996
1996
1995
1994
1994
1997
2001
2004
2008
2017
2026
2037
2044
2049
2051
2050
2046
2042
2039
2034
2031
2034
2038
2045
2056
2069
2087
2104
2122
2140
2160
2178
2196
2210
2222
2231
2235
2234
2230
2221
2211
2198
2189
2179
2168
2153
2137
2122
2108
2100
2096
2093
2090
2092
2096
2100
2102
2104
2103
2100
2094
2087
2078
2068
2058
2050
2043
2039
2038
2036
2034
2032
2034
2036
2038
2041
2040
2037
2029
2020
2007
1993
1983
1974
1964
1954
1946
1940
1938
1936
1937
1938
1938
1938
1938
1939
1940
1943
1949
1954
1957
1959
1960
1958
1956
1955
1956
1959
1961
1964
1967
1967
1966
1964
1962
1959
1954
1952
1947
1942
1939
1938
1937
1937
1937
1939
1940
1941
1940
1937
1937
1937
1940
1946
1956
1969
1983
2001
2016
2030
2046
2065
2091
2122
2158
2198
2242
2287
2329
2368
2405
2432
2454
2472
2486
2496
2502
2504
2497
2482
2455
2418
2374
2321
2258
2186
2104
2013
1914
1810
1702
1595
1496
1410
1340
1294
1268
1264
1278
1309
1350
1401
1457
1516
1576
1636
1698
1758
1818
1873
1924
1970
2004
2033
2056
2070
2074
2072
2064
2052
2036
2024
2013
2004
1996
1988
1982
1975
1971
1972
1973
1975
1979
1983
1988
1991
1994
1993
1992
1993
1996
1999
2002
2003
2002
2002
1999
1997
1993
1992
1991
1990
1988
1987
1990
1993
1996
1999
2004
2007
2011
2015
2019
2021
2025
2028
2032
2036
2037
2038
2035
2032
2029
2026
2026
2026
2027
2028
2031
2036
2041
2048
2052
2052
2052
2050
2050
2050
2047
2045
2045
2045
2045
2045
2047
2050
2050
2052
2052
2054
2058
2064
2072
2076
2080
2084
2086
2087
2086
2084
2083
2083
2086
2089
2090
2089
2084
2084
2085
2084
2083
2081
2080
2080
2080
2081
2082
2082
2084
2081
2078
2076
2074
2078
2084
2092
2100
2106
2115
2121
2126
2132
2136
2138
2137
2136
2135
2136
2137
2142
2147
2152
2159
2167
2176
2186
2194
2198
2202
2203
2202
2198
2194
2187
2181
2178
2179
2182
2185
2190
2198
2209
2216
2224
2230
2238
2242
2245
2245
2244
2244
2242
2245
2250
2256
2264
2270
2276
2280
2285
2290
2296
2301
2307
2314
2319
2326
2332
2338
2344
2348
2351
2356
2363
2374
2384
2395
2404
2412
2420
2426
2434
2441
2452
2464
2476
2486
2495
2503
2512
2519
2525
2528
2526
2525
2525
2525
2524
2530
2537
2548
2560
2573
2589
2598
2607
2618
2626
2637
2644
2648
2652
2656
2658
2661
2662
2668
2672
2678
2683
2684
2684
2680
2674
2668
2660
2652
2647
2642
2636
2634
2630
2628
2622
2616
2609
2602
2596
2588
2581
2572
2558
2541
2524
2507
2488
2474
2460
2450
2440
2428
2414
2399
2380
2357
2330
2304
2276
2254
2234
2216
2195
2176
2158
2144
2132
2122
2112
2106
2098
2087
2075
2064
2049
2032
2018
2006
1994
1980
1968
1957
1949
1942
1934
1929
1919
1913
1908
1905
1901
1897
1896
1895
1892
1887
1880
1872
1866
1862
1861
1860
1858
1854
1852
1852
1851
1853
1857
1863
1867
1867
1866
1862
1861
1856
1852
1845
1842
1840
1837
1834
1832
1830
1833
1839
1845
1850
1854
1856
1856
1856
1856
1858
1859
1862
1866
1867
1866
1861
1853
1849
1844
1838
1836
1835
1838
1840
1842
1846
1849
1851
1856
1860
1860
1861
1860
1862
1862
1863
1860
1859
1855
1851
1849
1849
1851
1850
1852
1853
1850
1847
1844
1844
1846
1848
1851
1857
1862
1866
1868
1867
1864
1862
1860
1859
1861
1866
1872
1878
1884
1890
1893
1896
1895
1892
1889
1886
1884
1884
1886
1889
1894
1903
1912
1924
1929
1930
1928
1925
1918
1911
1903
1896
1887
1878
1872
1869
1871
1874
1883
1891
1899
1900
1901
1903
1907
1910
1915
1915
1918
1919
1924
1924
1918
1909
1900
1892
1885
1880
1876
1873
1872
1871
1872
1874
1872
1872
1872
1874
1877
1883
1892
1901
1908
1912
1912
1910
1906
1902
1897
1894
1890
1884
1881
1878
1875
1874
1873
1873
1874
1877
1881
1885
1888
1889
1892
1892
1890
1885
1880
1876
1876
1879
1885
1892
1901
1909
1915
1922
1925
1926
1927
1927
1923
1919
1915
1910
1906
1902
1896
1896
1896
1898
1901
1903
1901
1896
1895
1894
1895
1895
1896
1899
1902
1905
1904
1902
1901
1900
1903
1908
1914
1916
1919
1922
1919
1914
1907
1902
1896
1892
1891
1892
1890
1888
1885
1885
1888
1890
1897
1906
1914
1922
1928
1932
1934
1934
1934
1933
1928
1925
1922
1921
1923
1926
1928
1930
1930
1928
1926
1925
1919
1914
1908
1907
1904
1904
1902
1905
1908
1910
1912
1916
1919
1924
1926
1927
1925
1921
1922
1922
1926
1929
1934
1938
1942
1947
1952
1955
1955
1956
1956
1955
1953
1949
1945
1942
1939
1933
1926
1921
1915
1909
1906
1905
1906
1907
1910
1916
1919
1922
1925
1928
1931
1936
1942
1949
1955
1961
1964
1965
1962
1957
1953
1949
1945
1944
1945
1950
1953
1958
1961
1965
1964
1962
1954
1946
1937
1928
1920
1919
1921
1926
1931
1937
1940
1944
1949
1955
1958
1962
1966
1966
1968
1969
1968
1966
1962
1959
1959
1961
1962
1963
1963
1962
1959
1955
1949
1947
1947
1949
1950
1952
1951
1952
1955
1961
1968
1974
1979
1982
1986
1989
1990
1992
1991
1987
1984
1979
1976
1969
1967
1965
1964
1962
1960
1960
1961
1961
1960
1961
1962
1965
1968
1970
1973
1970
1969
1969
1971
1973
1976
1980
1986
1987
1990
1993
1995
1995
1992
1992
1992
1992
1994
1996
1998
1998
2000
2006
2015
2026
2038
2050
2060
2067
2074
2077
2075
2070
2063
2056
2049
2043
2040
2043
2052
2060
2072
2085
2099
2115
2132
2149
2168
2180
2192
2201
2202
2196
2188
2178
2166
2155
2143
2134
2127
2118
2112
2105
2101
2097
2094
2094
2094
2096
2096
2096
2095
2093
2090
2085
2084
2081
2080
2080
2076
2071
2064
2059
2052
2047
2043
2042
2041
2040
2036
2036
2033
2027
2022
2016
2010
2003
1993
1979
1966
1954
1947
1940
1934
1929
1926
1926
1926
1926
1927
1930
1933
1937
1942
1948
1951
1952
1951
1950
1949
1950
1951
1954
1957
1958
1959
1963
1968
1970
1972
1974
1975
1978
1981
1982
1980
1974
1969
1963
1956
1950
1944
1940
1936
1931
1929
1926
1923
1923
1924
1930
1937
1944
1954
1967
1982
2002
2029
2064
2105
2151
2204
2258
2316
2375
2425
2469
2503
2528
2548
2564
2576
2580
2575
2557
2528
2490
2446
2392
2330
2260
2186
2105
2015
1923
1824
1722
1624
1539
1470
1426
1399
1393
1402
1422
1453
1489
1531
1576
1618
1665
1713
1765
1817
1868
1917
1962
1997
2022
2036
2044
2043
2040
2029
2018
2004
1991
1980
1972
1964
1957
1951
1947
1944
1944
1947
1951
1955
1956
1960
1960
1962
1960
1960
1958
1956
1955
1956
1956
1957
1961
1966
1972
1977
1980
1983
1987
1989
1990
1993
1994
1996
1996
1996
1999
1998
1997
1995
1994
1991
1990
1991
1992
1993
1990
1994
1997
2000
2005
2007
2012
2013
2012
2013
2013
2014
2012
2012
2012
2011
2012
2015
2024
2031
2039
2049
2061
2069
2074
2074
2072
2068
2062
2058
2056
2057
2058
2060
2063
2064
2062
2060
2058
2055
2052
2049
2045
2042
2042
2045
2053
2059
2064
2068
2072
2073
2076
2078
2080
2082
2083
2084
2086
2089
2094
2100
2103
2105
2104
2101
2098
2097
2094
2095
2098
2102
2103
2104
2108
2110
2114
2117
2122
2124
2124
2125
2128
2132
2136
2142
2147
2151
2156
2162
2169
2176
2180
2186
2192
2192
2193
2193
2193
2193
2193
2190
2188
2184
2183
2185
2189
2194
2198
2201
2206
2208
2212
2216
2222
2228
2238
2248
2259
2271
2282
2290
2299
2304
2305
2304
2306
2309
2316
2322
2330
2336
2340
2342
2345
2352
2358
2364
2371
2376
2382
2388
2393
2398
2403
2408
2414
2422
2430
2441
2451
2460
2468
2478
2487
2493
2500
2508
2518
2529
2538
2548
2556
2564
2570
2576
2583
2589
2595
2599
2605
2606
2607
2605
2605
2602
2601
2600
2604
2605
2610
2618
2632
2644
2655
2664
2671
2671
2669
2660
2652
2642
2634
2628
2624
2617
2611
2604
2599
2593
2590
2585
2577
2563
2544
2524
2502
2483
2469
2458
2449
2436
2423
2406
2388
2368
2347
2327
2307
2290
2271
2256
2243
2230
2219
2209
2198
2183
2167
2148
2127
2106
2086
2065
2047
2035
2023
2012
2001
1991
1981
1972
1966
1960
1954
1947
1940
1933
1926
1916
1907
1899
1891
1884
1879
1877
1878
1876
1876
1874
1872
1870
1871
1868
1867
1867
1866
1863
1860
1858
1861
1862
1860
1856
1853
1850
1851
1854
1857
1857
1858
1856
1858
1859
1860
1861
1861
1860
1859
1854
1851
1848
1844
1842
1841
1842
1845
1850
1857
1863
1871
1878
1883
1884
1881
1877
1872
1872
1870
1868
1869
1866
1862
1859
1857
1852
1849
1846
1847
1846
1844
1842
1842
1842
1845
1852
1863
1870
1874
1875
1875
1875
1874
1872
1872
1873
1879
1882
1887
1888
1891
1894
1898
1899
1896
1895
1893
1891
1887
1887
1888
1890
1890
1892
1893
1891
1887
1886
1886
1885
1882
1883
1884
1891
1900
1909
1915
1921
1923
1922
1921
1916
1910
1904
1901
1897
1895
1893
1893
1893
1895
1896
1897
1900
1900
1900
1900
1898
1896
1895
1896
1897
1901
1908
1917
1928
1940
1950
1957
1959
1958
1955
1948
1942
1930
1922
1914
1908
1902
1898
1895
1891
1890
1890
1893
1895
1894
1895
1894
1895
1896
1898
1899
1900
1902
1902
1906
1907
1908
1909
1911
1913
1915
1919
1926
1931
1935
1937
1937
1935
1932
1928
1927
1924
1919
1913
1909
1902
1898
1896
1895
1893
1892
1892
1892
1893
1894
1894
1895
1898
1904
1911
1918
1924
1928
1932
1939
1946
1954
1960
1963
1964
1960
1954
1947
1940
1931
1924
1922
1916
1914
1914
1914
1913
1912
1914
1916
1916
1916
1915
1917
1918
1918
1919
1918
1918
1916
1916
1916
1918
1919
1925
1930
1933
1938
1941
1944
1945
1946
1945
1940
1936
1928
1924
1919
1915
1913
1911
1913
1918
1923
1926
1932
1935
1936
1937
1938
1937
1936
1934
1934
1934
1932
1930
1931
1930
1927
1926
1927
1927
1926
1928
1928
1931
1936
1943
1946
1951
1952
1956
1961
1965
1968
1966
1960
1952
1941
1934
1932
1933
1936
1938
1940
1939
1936
1934
1934
1937
1940
1940
1941
1940
1938
1938
1942
1948
1956
1963
1971
1978
1984
1992
1998
2000
1996
1992
1985
1974
1965
1955
1947
1940
1935
1932
1929
1930
1928
1932
1938
1943
1947
1953
1958
1963
1964
1967
1969
1970
1968
1966
1967
1968
1968
1970
1970
1972
1973
1976
1979
1983
1983
1985
1987
1988
1986
1982
1981
1978
1972
1969
1967
1967
1965
1963
1963
1963
1962
1964
1968
1974
1979
1986
1992
1994
1992
1994
1994
1993
1990
1986
1981
1975
1972
1973
1976
1981
1988
1997
2002
2003
2001
1997
1995
1994
1992
1992
1994
1993
1988
1982
1977
1969
1965
1965
1968
1972
1976
1982
1986
1987
1987
1987
1986
1986
1985
1987
1990
1990
1990
1989
1990
1988
1988
1988
1989
1989
1990
1993
1997
1998
1996
1993
1990
1987
1985
1983
1986
1987
1989
1990
1992
1993
1992
1991
1987
1986
1986
1989
1994
1996
1999
2002
2007
2010
2015
2020
2019
2014
2009
2005
2002
1998
1994
1992
1992
1993
1992
1995
1993
1994
1994
1995
1997
1998
2001
2004
2006
2006
2006
2004
2001
1999
1998
1999
2001
2004
2010
2017
2021
2021
2019
2014
2013
2011
2011
2010
2012
2013
2014
2012
2014
2015
2018
2021
2026
2029
2031
2034
2038
2042
2047
2052
2057
2062
2066
2069
2071
2070
2069
2070
2072
2077
2081
2085
2091
2096
2106
2121
2140
2161
2184
2206
2223
2234
2240
2244
2247
2248
2245
2241
2234
2228
2218
2208
2198
2187
2176
2168
2161
2154
2146
2142
2140
2138
2138
2142
2145
2148
2146
2145
2140
2136
2131
2127
2122
2116
2109
2104
2101
2098
2096
2094
2094
2092
2090
2086
2085
2083
2080
2076
2071
2064
2056
2048
2038
2028
2015
2004
1995
1986
1979
1976
1977
1978
1976
1975
1976
1974
1972
1972
1973
1976
1980
1981
1981
1980
1976
1974
1974
1975
1976
1978
1981
1982
1983
1987
1990
1992
1992
1993
1995
1996
1999
2000
2003
2005
2006
2009
2013
2014
2013
2009
2004
1998
1987
1980
1973
1966
1962
1961
1966
1972
1981
1993
2013
2036
2068
2104
2152
2202
2255
2310
2367
2417
2462
2499
2530
2555
2577
2598
2616
2626
2628
2617
2588
2541
2482
2410
2331
2244
2154
2060
1964
1866
1763
1659
1562
1474
1400
1349
1320
1310
1315
1335
1368
1412
1462
1520
1583
1650
1716
1780
1837
1887
1930
1967
1996
2014
2023
2026
2026
2020
2012
2003
1990
1978
1965
1959
1955
1953
1953
1952
1957
1958
1965
1973
1983
1993
2000
2006
2011
2014
2020
2023
2027
2028
2026
2021
2015
2008
2006
2005
2009
2012
2012
2011
2009
2004
2001
1997
1994
1993
1997
2002
2008
2015
2020
2024
2028
2029
2029
2032
2037
2041
2042
2046
2048
2050
2049
2050
2050
2052
2052
2049
2046
2044
2042
2042
2044
2042
2043
2044
2046
2048
2052
2055
2058
2060
2060
2061
2062
2066
2067
2070
2072
2074
2073
2072
2072
2072
2075
2080
2087
2096
2101
2106
2108
2109
2112
2114
2118
2118
2118
2116
2116
2114
2112
2112
2112
2114
2114
2113
2113
2112
2113
2114
2119
2124
2129
2133
2136
2136
2136
2140
2142
2144
2147
2148
2152
2154
2156
2157
2159
2160
2158
2157
2156
2154
2154
2156
2162
2169
2176
2181
2189
2197
2208
2219
2226
2226
2223
2216
2211
2208
2205
2205
2208
2212
2216
2222
2229
2234
2237
2239
2244
2248
2254
2261
2269
2277
2286
2294
2304
2313
2324
2336
2343
2346
2345
2342
2339
2336
2336
2336
2344
2350
2360
2370
2382
2395
2405
2414
2422
2426
2430
2433
2438
2445
2450
2460
2471
2482
2494
2506
2516
2528
2539
2545
2549
2548
2546
2545
