2991
3222
3403
3550
3654
3713
3724
3698
3654
3593
3524
3459
3404
3354
3305
3255
3198
3142
3092
3043
2996
2957
2928
2905
2882
2845
2781
2712
2668
2656
2672
2732
2809
2880
2943
2993
3014
3010
2992
2963
2928
2888
2845
2809
2786
2772
2763
2756
2757
2775
2818
2868
2911
2945
2973
2991
2991
2977
2959
2934
2899
2848
2784
2721
2658
2607
2565
2521
2471
2420
2380
2357
2351
2356
2363
2366
2364
2353
2340
2325
2320
2321
2309
2271
2222
2178
2156
2155
2180
2226
2280
2332
2376
2407
2437
2456
2471
2491
2512
2522
2514
2500
2483
2468
2449
2407
2361
2319
2276
2234
2201
2192
2200
2218
2241
2267
2304
2346
2405
2466
2519
2573
2624
2665
2697
2719
2723
2704
2668
2635
2610
2589
2562
2533
2501
2462
2422
2384
2364
2369
2389
2402
2384
2331
2246
2141
2031
1908
1777
1665
1582
1535
1511
1498
1486
1464
1443
1433
1435
1447
1478
1534
1608
1692
1775
1851
1918
1977
2023
2064
2106
2142
2164
2160
2130
2075
2008
1938
1875
1823
1778
1727
1675
1623
1584
1547
1518
1500
1490
1472
1443
1412
1394
1397
1425
1463
1512
1573
1645
1716
1768
1793
1797
1793
1777
1749
1719
1691
1666
1650
1655
1681
1710
1727
1729
1721
1711
1704
1700
1696
1698
1717
1751
1782
1806
1815
1815
1800
1781
1759
1733
1704
1677
1654
1637
1610
1577
1546
1520
1508
1511
1533
1576
1631
1693
1759
1813
1849
1870
1876
1874
1873
1867
1849
1817
1775
1731
1699
1678
1669
1670
1680
1699
1721
1742
1756
1773
1788
1802
1799
1785
1770
1762
1771
1793
1809
1811
1788
1755
1726
1704
1708
1737
1788
1847
1899
1934
1956
1972
1982
1991
1988
1969
1940
1896
1851
1805
1759
1711
1661
1622
1600
1590
1587
1583
1577
1574
1582
1613
1669
1740
1810
1869
1909
1932
1942
1945
1940
1937
1939
1942
1946
1953
1963
1979
1989
1983
1956
1921
1892
1863
1838
1820
1803
1779
1747
1708
1676
1652
1643
1649
1685
1737
1803
1870
1932
1984
2032
2078
2102
2103
2082
2048
2008
1969
1935
1909
1901
1918
1962
2025
2092
2157
2218
2276
2334
2383
2422
2456
2484
2501
2503
2486
2466
2444
2415
2376
2327
2270
2210
2155
2116
2099
2098
2114
2136
2170
2210
2255
2297
2335
2362
2372
2363
2339
2304
2268
2232
2202
2182
2176
2170
2166
2160
2160
2163
2173
2189
2211
2233
2268
2320
2382
2448
2502
2542
2572
2580
2561
2512
2440
2356
2267
2186
2120
2080
2078
2116
2197
2310
2415
2495
2542
2565
2568
2556
2546
2542
2532
2519
2500
2471
2429
2382
2342
2314
2299
2277
2240
2192
2140
2100
2061
2017
1970
1917
1862
1813
1782
1761
1743
1727
1712
1709
1714
1715
1710
1705
1712
1743
1800
1869
1942
2024
2110
2187
2258
2327
2391
2434
2452
2437
2391
2324
2245
2156
2058
1943
1831
1717
1609
1513
1442
1398
1384
1399
1446
1519
1605
1692
1775
1844
1891
1919
1940
1962
1992
2028
2076
2126
2170
2194
2186
2162
2125
2074
1998
1904
1806
1713
1627
1556
1499
1456
1432
1417
1406
1399
1399
1407
1422
1442
1467
1496
1533
1583
1644
1710
1768
1812
1841
1846
1825
1789
1742
1685
1613
1505
1301
1000
686
414
215
108
94
173
346
608
926
1265
1594
1893
2148
2361
2551
2718
2849
2930
2964
2947
2885
2782
2631
2418
2158
1873
1613
1404
1268
1202
1186
1211
1258
1314
1372
1417
1439
1445
1443
1446
1468
1509
1548
1588
1632
1677
1712
1731
1734
1731
1735
1753
1786
1842
1913
1997
2090
2177
2249
2303
2341
2363
2371
2365
2350
2317
2270
2220
2178
2152
2130
2094
2052
2013
1976
1948
1938
1954
1986
2015
2034
2037
2025
2007
1988
1978
1979
1993
2015
2040
2063
2079
2090
2098
2110
2125
2138
2148
2150
2147
2132
2105
2073
2034
1995
1952
1907
1864
1827
1798
1794
1824
1887
1978
2072
2163
2247
2324
2388
2422
2420
2386
2338
2285
2243
2212
2186
2164
2140
2118
2096
2067
2042
2025
2017
2026
2041
2068
2104
2144
2182
2214
2241
2269
2281
2274
2239
2179
2093
1999
1913
1855
1830
1827
1837
1848
1863
1871
1873
1864
1848
1823
1793
1777
1780
1798
1826
1860
1902
1957
2012
2061
2101
2129
2138
2130
2109
2080
2040
1996
1948
1892
1831
1776
1742
1729
1733
1757
1793
1832
1860
1875
1878
1879
1887
1901
1917
1930
1936
1934
1928
1919
1927
1929
1944
1966
1991
2012
2028
2036
2032
2022
2000
1956
1900
1836
1770
1697
1616
1544
1480
1431
1397
1385
1396
1431
1484
1550
1621
1696
1776
1865
1956
2045
2122
2173
2197
2200
2178
2134
2082
2033
1994
1952
1901
1848
1805
1777
1771
1797
1844
1905
1978
2063
2136
2190
2231
2258
2251
2206
2139
2064
1989
1922
1869
1823
1788
1764
1756
1766
1783
1802
1831
1873
1932
2005
2085
2156
2204
2233
2241
2226
2186
2129
2060
1992
1943
1908
1881
1848
1806
1759
1708
1668
1650
1661
1685
1707
1713
1718
1725
1743
1777
1840
1927
2016
2112
2210
2294
2359
2404
2424
2417
2386
2332
2255
2165
2068
1977
1904
1854
1831
1840
1874
1935
2004
2067
2122
2170
2211
2241
2263
2282
2298
2307
2290
2251
2204
2157
2109
2065
2026
1992
1965
1945
1933
1923
1925
1937
1955
1967
1978
1994
2010
2023
2039
2060
2087
2120
2165
2216
2256
2263
2236
2199
2159
2121
2096
2090
2103
2124
2143
2146
2140
2130
2116
2095
2070
2047
2027
2013
2019
2043
2088
2152
2229
2309
2375
2407
2396
2356
2310
2257
2211
2164
2120
2094
2089
2112
2156
2202
2250
2291
2321
2333
2321
2288
2236
2176
2110
2052
2007
1976
1959
1955
1951
1951
1945
1911
1823
1717
1632
1566
1509
1463
1444
1459
1521
1641
1816
2015
2216
2404
2581
2743
2878
2977
3028
3030
2978
2873
2730
2560
2377
2212
2086
2032
2060
2150
2262
2372
2482
2588
2688
2775
2852
2923
2987
3041
3076
3085
3063
3011
2930
2831
2730
2637
2556
2500
2472
2459
2452
2436
2402
2356
2310
2260
2204
2148
2092
2036
1991
1962
1950
1954
1965
1990
2022
2066
2106
2140
2172
2205
2231
2252
2272
2283
2283
2274
2259
2241
2224
2209
2195
2189
2199
2228
2261
2293
2320
2338
2345
2346
2341
2339
2333
2321
2306
2285
2260
2231
2198
2161
2120
2068
2008
1951
1893
1841
1801
1780
1782
1803
1842
1896
1955
2015
2072
2116
2148
2169
2186
2210
2242
2270
2280
2268
2231
2172
2109
2048
1998
1959
1934
1924
1926
1945
1978
2021
2071
2121
2162
2192
2203
2201
2180
2136
2071
1992
1915
1844
1787
1753
1744
1755
1789
1835
1883
1925
1954
1965
1954
1923
1871
1807
1738
1671
1612
1571
1555
1559
1576
1603
1649
1712
1782
1844
1898
1952
2012
2087
2158
2217
2260
2290
2308
2312
2310
2304
2295
2289
2290
2300
2325
2360
2390
2408
2412
2404
2381
2345
2296
2236
2173
2106
2038
1988
1955
1943
1943
1952
1969
1989
2015
2050
2091
2130
2173
2218
2259
2294
2321
2335
2325
2278
2200
2104
1998
1890
1783
1693
1618
1569
1546
1556
1608
1697
1799
1910
2017
2110
2167
2190
2186
2168
2143
2108
2072
2039
2018
2010
2018
2037
2051
2057
2057
2054
2057
2064
2073
2081
2086
2083
2074
2064
2056
2052
2052
2056
2069
2092
2119
2144
2166
2187
2209
2231
2253
2269
2280
2285
2279
2267
2253
2241
2227
2220
2214
2211
2221
2248
2289
2340
2389
2431
2467
2502
2536
2564
2587
2602
2608
2602
2582
2555
2525
2498
2478
2463
2461
2461
2463
2460
2444
2427
2414
2412
2414
2421
2440
2473
2524
2589
2646
2685
2705
2716
2719
2708
2683
2650
2611
2575
2542
2519
2497
2474
2449
2426
2411
2401
2397
2399
2407
2420
2436
2453
2466
2470
2466
2453
2434
2410
2384
2351
2324
2301
2282
2260
2231
2198
2167
2138
2106
2078
2052
2033
2020
2013
2013
2015
2019
2019
2018
2018
2010
1995
1977
1954
1928
1901
1878
1859
1839
1824
1809
1796
1789
1785
1785
1787
1791
1800
1805
1814
1824
1830
1834
1835
1831
1826
1824
1824
1827
1832
1838
1850
1864
1877
1884
1886
1878
1863
1848
1834
1822
1814
1806
1798
1791
1782
1774
1765
1753
1743
1736
1730
1725
1724
1725
1725
1725
1729
1730
1736
1744
1756
1772
1788
1804
1813
1818
1821
1822
1820
1817
1814
1812
1813
1816
1824
1832
1845
1851
1855
1858
1869
1883
1898
1914
1930
1948
1958
1954
1938
1916
1889
1853
1814
1775
1736
1706
1687
1678
1676
1679
1685
1691
1699
1707
1711
1713
1716
1720
1727
1736
1746
1756
1770
1788
1803
1816
1825
1835
1844
1852
1856
1855
1847
1837
1831
1828
1829
1832
1834
1836
1837
1840
1845
1853
1860
1871
1878
1888
1896
1897
1898
1895
1894
1897
1904
1925
1962
1998
2029
2046
2056
2054
2041
2024
2003
1981
1963
1946
1929
1913
1901
1891
1883
1872
1859
1849
1842
1838
1829
1818
1804
1788
1773
1760
1754
1753
1756
1763
1777
1794
1812
1829
1855
1897
1944
1991
2035
2077
2114
2142
2164
2179
2191
2193
2189
2186
2182
2178
2171
2162
2154
2151
2149
2147
2141
2130
2114
2090
2057
2018
1975
1925
1875
1827
1784
1744
1714
1687
1665
1652
1644
1640
1638
1639
1642
1646
1654
1666
1678
1690
1702
1713
1724
1732
1737
1742
1745
1749
1753
1758
1762
1771
1785
1799
1816
1830
1848
1866
1882
1896
1911
1927
1945
1971
2000
2033
2064
2086
2099
2099
2086
2069
2045
2023
2001
1982
1971
1964
1958
1955
1956
1961
1966
1969
1968
1965
1962
1957
1953
1949
1949
1947
1947
1948
1949
1953
1958
1961
1959
1953
1947
1941
1939
1939
1948
1965
1985
2011
2039
2071
2103
2137
2167
2190
2204
2216
2225
2230
2232
2228
2218
2207
2196
2183
2165
2146
2125
2106
2094
2085
2080
2078
2082
2091
2102
2114
2124
2130
2132
2131
2123
2112
2102
2092
2087
2080
2075
2069
2064
2058
2057
2060
2071
2084
2097
2114
2136
2162
2188
2216
2244
2265
2285
2301
2313
2324
2328
2329
2326
2320
2313
2311
2309
2311
2315
2318
2322
2322
2320
2319
2318
2317
2317
2313
2309
2299
2291
2278
2261
2244
2229
2214
2201
2190
2179
2166
2154
2139
2126
2109
2093
2074
2058
2041
2031
2025
2020
2014
2004
1996
1990
1987
1988
1991
1999
2005
2008
2010
2014
2020
2029
2038
2045
2050
2052
2050
2045
2041
2033
2025
2019
2017
2018
2020
2020
2017
2013
2009
2007
2008
2013
2020
2030
2043
2064
2084
2108
2131
2153
2173
2190
2202
2212
2216
2218
2217
2212
2205
2198
2190
2177
2157
2142
2120
2099
2080
2062
2048
2037
2029
2027
2028
2029
2033
2038
2043
2049
2052
2055
2057
2057
2056
2052
2045
2035
2027
2021
2015
2010
2005
1999
1996
1993
1987
1983
1979
1974
1966
1959
1950
1941
1931
1919
1910
1902
1897
1894
1893
1893
1895
1897
1895
1891
1882
1874
1871
1870
1869
1867
1863
1861
1865
1869
1875
1880
1886
1892
1893
1895
1896
1897
1897
1896
1893
1891
1890
1889
1891
1892
1893
1895
1897
1900
1902
1905
1909
1913
1914
1915
1919
1924
1931
1938
1948
1963
1983
2004
2027
2054
2088
2125
2162
2201
2241
2282
2327
2372
2415
2452
2479
2497
2507
2509
2505
2490
2468
2436
2392
2338
2277
2207
2130
2048
1959
1864
1768
1670
1568
1463
1360
1266
1187
1123
1079
1064
1069
1094
1130
1176
1231
1294
1365
1440
1518
1597
1674
1745
1810
1866
1915
1954
1987
2009
2023
2031
2031
2027
2015
1998
1979
1958
1938
1919
1905
1899
1897
1897
1894
1892
1887
1886
1890
1896
1905
1918
1929
1943
1954
1967
1977
1983
1983
1981
1980
1980
1982
1982
1975
1964
1953
1947
1941
1937
1932
1929
1928
1929
1929
1932
1935
1937
1940
1942
1944
1946
1947
1948
1949
1948
1945
1943
1944
1947
1953
1964
1978
1990
1999
2004
2007
2007
2004
1997
1992
1989
1986
1984
1979
1973
1970
1969
1971
1970
1969
1971
1973
1976
1978
1980
1982
1981
1979
1977
1973
1973
1974
1977
1976
1976
1977
1981
1982
1983
1983
1986
1991
1991
1993
1991
1991
1994
1999
2007
2017
2020
2020
2011
1988
1953
1915
1883
1864
1858
1865
1881
1908
1941
1981
2021
2061
2095
2126
2152
2176
2197
2218
2240
2260
2282
2305
2329
2346
2361
2371
2380
2386
2391
2396
2397
2400
2402
2402
2407
2414
2429
2450
2484
2526
2569
2609
2649
2683
2713
2734
2750
2755
2753
2746
2736
2729
2721
2714
2710
2710
2715
2720
2724
2721
2716
2709
2703
2700
2698
2698
2701
2703
2704
2705
2704
2706
2703
2698
2697
2696
2696
2700
2698
2698
2696
2695
2695
2695
2699
2700
2702
2703
2699
2697
2696
2693
2687
2680
2676
2671
2668
2666
2666
2668
2674
2680
2688
2698
2710
2720
2729
2737
2746
2753
2757
2760
2762
2762
2758
2751
2744
2742
2737
2735
2732
2732
2732
2735
2733
2731
2721
2708
2684
2651
2612
2574
2545
2526
2517
2513
2516
2518
2526
2538
2547
2554
2560
2564
2565
2562
2558
2551
2541
2531
2517
2504
2495
2484
2473
2456
2441
2423
2402
2380
2354
2333
2311
2295
2283
2271
2258
2245
2228
2213
2195
2177
2158
2139
2122
2103
2089
2078
2064
2052
2040
2031
2028
2022
2019
2019
2022
2026
2026
2030
2029
2027
2019
2010
2000
1988
1978
1965
1953
1942
1931
1918
1905
1893
1884
1876
1871
1869
1868
1870
1872
1876
1880
1884
1887
1889
1892
1894
1893
1892
1885
1877
1870
1861
1852
1838
1824
1810
1797
1788
1778
1774
1771
1768
1766
1766
1768
1764
1763
1764
1763
1764
1763
1757
1751
1747
1744
1740
1738
1741
1748
1757
1763
1765
1769
1773
1778
1781
1782
1783
1782
1780
1772
1759
1753
1751
1756
1763
1774
1786
1791
1796
1801
1805
1812
1817
1823
1829
1835
1841
1846
1853
1860
1865
1871
1879
1886
1893
1897
1897
1895
1894
1892
1888
1887
1883
1882
1885
1891
1898
1904
1908
1910
1909
1910
1909
1912
1916
1922
1930
1938
1945
1952
1959
1969
1976
1975
1972
1967
1959
1952
1943
1937
1933
1930
1924
1919
1914
1910
1906
1905
1905
1905
1903
1905
1906
1911
1907
1906
1905
1901
1896
1891
1884
1883
1882
1887
1892
1897
1905
1909
1907
1905
1903
1902
1903
1903
1905
1906
1903
1898
1896
1897
1900
1903
1905
1904
1903
1903
1901
1898
1897
1900
1897
1894
1895
1898
1900
1901
1896
1894
1891
1888
1887
1887
1887
1885
1887
1887
1884
1883
1882
1883
1883
1885
1886
1890
1893
1892
1886
1880
1871
1866
1864
1868
1871
1880
1892
1907
1916
1919
1916
1905
1892
1880
1870
1865
1863
1860
1859
1860
1864
1868
1869
1870
1872
1875
1878
1880
1883
1885
1885
1887
1886
1885
1882
1880
1875
1875
1877
1880
1883
1887
1889
1893
1892
1888
1885
1882
1883
1883
1881
1879
1880
1887
1895
1900
1903
1902
1901
1899
1898
1900
1905
1910
1911
1911
1909
1909
1904
1896
1887
1880
1875
1872
1871
1867
1864
1864
1864
1868
1873
1878
1883
1891
1897
1898
1902
1904
1908
1910
1910
1907
1908
1908
1906
1904
1899
1895
1891
1885
1880
1877
1877
1880
1882
1886
1888
1890
1893
1896
1898
1903
1903
1902
1900
1898
1896
1896
1897
1897
1899
1901
1903
1906
1911
1914
1917
1921
1924
1924
1919
1911
1899
1892
1887
1890
1890
1891
1892
1893
1898
1903
1908
1914
1916
1917
1915
1916
1918
1919
1918
1914
1910
1906
1903
1901
1900
1897
1894
1890
1893
1895
1899
1898
1898
1897
1897
1898
1899
1896
1897
1897
1897
1899
1901
1904
1905
1907
1912
1911
1908
1906
1908
1907
1906
1903
1906
1906
1908
1911
1916
1923
1934
1945
1952
1961
1971
1979
1983
1982
1981
1983
1983
1986
1988
1991
1998
2006
2012
2015
2018
2018
2016
2013
2005
2001
1997
1996
1996
1999
2007
2019
2032
2052
2072
2094
2117
2135
2151
2168
2184
2198
2206
2212
2210
2205
2194
2183
2171
2157
2142
2125
2106
2086
2066
2046
2029
2017
2009
2003
1999
1998
1998
1999
2003
2003
2002
2001
2004
2006
2007
2007
2006
2009
2009
2012
2013
2012
2010
2007
2002
1995
1988
1981
1973
1964
1956
1947
1939
1930
1922
1910
1899
1886
1875
1867
1866
1866
1867
1866
1863
1860
1859
1860
1862
1867
1871
1879
1881
1884
1890
1895
1899
1902
1903
1901
1896
1896
1892
1890
1887
1887
1886
1886
1885
1880
1873
1869
1868
1864
1860
1857
1854
1853
1853
1856
1859
1862
1862
1863
1867
1875
1885
1899
1912
1932
1949
1973
2003
2031
2064
2098
2134
2176
2222
2271
2322
2373
2417
2452
2474
2486
2491
2486
2470
2439
2392
2336
2271
2200
2121
2035
1948
1860
1768
1674
1574
1470
1364
1267
1183
1116
1072
1053
1053
1072
1104
1146
1199
1264
1335
1414
1500
1588
1673
1753
1828
1891
1945
1990
2024
2047
2060
2067
2066
2060
2047
2036
2025
2010
1997
1989
1984
1983
1985
1991
1994
1999
2004
2009
2014
2022
2033
2050
2064
2077
2083
2081
2075
2065
2053
2041
2031
2022
2014
2011
2009
2009
2009
2011
2013
2013
2013
2012
2014
2021
2027
2036
2044
2049
2052
2055
2056
2059
2061
2063
2066
2068
2068
2067
2068
2070
2074
2080
2084
2087
2084
2084
2085
2082
2078
2081
2088
2096
2103
2105
2103
2101
2099
2096
2096
2094
2090
2088
2086
2085
2084
2086
2086
2086
2084
2086
2086
2089
2093
2096
2103
2109
2115
2120
2122
2123
2123
2122
2119
2117
2116
2114
2105
2095
2087
2084
2088
2096
2105
2117
2129
2140
2150
2157
2162
2168
2172
2178
2180
2182
2183
2182
2180
2177
2175
2178
2180
2180
2181
2182
2186
2189
2189
2190
2192
2195
2199
2204
2212
2223
2230
2242
2256
2269
2281
2287
2290
2292
2290
2290
2292
2292
2292
2292
2292
2295
2298
2292
2304
2306
2305
2304
2306
2308
2312
2318
2323
2327
2330
2337
2350
2364
2382
2401
2420
2438
2452
2463
2466
2468
2468
2469
2473
2477
2482
2485
2486
2487
2487
2489
2493
2503
2511
2517
2522
2528
2536
2545
2554
2568
2584
2600
2620
2637
2653
2664
2674
2682
2685
2686
2688
2690
2691
2693
2696
2703
2709
2717
2723
2729
2736
2741
2746
2749
2750
2749
2750
2754
2754
2756
2758
2760
2760
2759
2758
2758
2759
2761
2758
2752
2743
2731
2721
2713
2708
2704
2702
2699
2692
2685
2677
2665
2652
2632
2613
2594
2573
2551
2528
2510
2493
2473
2452
2430
2410
2388
2366
2343
2319
2300
2286
2276
2273
2266
2259
2247
2234
2220
2204
2186
2164
2144
2123
2103
2082
2065
2048
2033
2015
2002
1991
1980
1972
1966
1959
1953
1950
1948
1944
1942
1938
1933
1927
1919
1914
1910
1903
1897
1887
1877
1870
1864
1858
1852
1847
1841
1836
1835
1835
1840
1844
1847
1850
1850
1848
1843
1835
1826
1820
1816
1816
1819
1823
1828
1831
1835
1838
1839
1839
1837
1834
1828
1820
1815
1807
1803
1799
1800
1802
1807
1812
1817
1824
1829
1830
1832
1836
1839
1842
1846
1848
1853
1858
1860
1858
1856
1854
1855
1854
1853
1850
1846
1843
1842
1841
1842
1841
1844
1846
1847
1846
1844
1845
1849
1852
1856
1860
1865
1870
1876
1881
1883
1886
1890
1897
1900
1902
1901
1894
1887
1878
1873
1871
1872
1877
1881
1885
1888
1885
1882
1878
1874
1874
1877
1880
1883
1883
1884
1884
1882
1880
1880
1881
1880
1879
1877
1876
1875
1873
1872
1874
1874
1874
1873
1874
1875
1876
1873
1868
1866
1864
1859
1854
1850
1847
1846
1845
1847
1846
1846
1849
1851
1854
1855
1857
1855
1854
1852
1851
1851
1851
1853
1854
1855
1858
1862
1863
1864
1865
1868
1869
1870
1873
1873
1872
1870
1867
1866
1865
1865
1866
1868
1871
1872
1873
1876
1879
1882
1882
1877
1871
1866
1864
1864
1863
1865
1867
1872
1876
1880
1881
1879
1877
1875
1876
1879
1882
1885
1884
1883
1879
1874
1869
1868
1871
1876
1881
1885
1890
1894
1898
1901
1903
1906
1904
1899
1889
1881
1873
1867
1863
1864
1869
1877
1889
1900
1907
1915
1919
1925
1926
1924
1917
1915
1912
1912
1912
1910
1905
1905
1906
1908
1906
1903
1902
1901
1901
1903
1905
1908
1906
1907
1908
1906
1908
1906
1905
1905
1903
1903
1901
1900
1903
1905
1906
1908
1909
1910
1911
1912
1912
1913
1911
1907
1908
1914
1922
1929
1933
1932
1926
1919
1913
1907
1903
1899
1896
1898
1899
1900
1902
1905
1909
1912
1914
1916
1916
1917
1917
1919
1923
1924
1927
1930
1936
1941
1945
1952
1955
1957
1957
1955
1954
1950
1940
1927
1922
1925
1932
1940
1948
1955
1962
1966
1969
1972
1975
1976
1976
1974
1970
1969
1967
1966
1963
1965
1967
1971
1971
1969
1967
1965
1963
1960
1962
1965
1968
1974
1981
1990
1997
2000
2003
2004
2006
2009
2009
2007
2004
2002
2000
1997
1995
1990
1987
1987
1992
1998
2003
2009
2014
2019
2024
2027
2029
2029
2026
2024
2022
2024
2026
2031
2037
2043
2052
2062
2071
2078
2082
2089
2090
2089
2086
2081
2077
2074
2074
2073
2074
2075
2080
2083
2087
2089
2088
2088
2086
2085
2084
2087
2094
2106
2118
2130
2141
2151
2162
2179
2200
2225
2250
2274
2292
2305
2314
2316
2314
2312
2305
2297
2285
2268
2253
2231
2208
2188
2167
2152
2138
2128
2124
2123
2128
2132
2131
2130
2131
2135
2140
2142
2143
2140
2140
2136
2132
2128
2120
2113
2106
2103
2102
2100
2100
2097
2093
2088
2082
2073
2064
2056
2050
2043
2034
2023
2014
2009
2003
1996
1988
1980
1975
1969
1964
1959
1952
1949
1949
1955
1963
1971
1977
1983
1987
1986
1985
1983
1983
1986
1988
1992
1995
1998
2001
2002
2001
1998
1992
1983
1980
1975
1976
1981
1985
1986
1987
1988
1987
1989
1992
1993
1992
1990
1990
1992
1996
2001
2009
2023
2043
2070
2100
2135
2176
2217
2260
2304
2348
2393
2428
2456
2475
2483
2484
2481
2471
2453
2429
2399
2362
2318
2270
2214
2148
2070
1980
1882
1773
1657
1531
1402
1280
1173
1088
1028
995
991
1009
1046
1099
1164
1238
1324
1413
1506
1595
1682
1764
1840
1909
1973
2025
2064
2086
2096
2100
2101
2097
2092
2081
2069
2053
2036
2023
2011
2000
1993
1991
1991
1994
2002
2010
2021
2029
2035
2036
2041
2046
2053
2056
2059
2058
2054
2048
2036
2023
2009
2002
2001
2008
2021
2035
2046
2056
2060
2063
2064
2064
2067
2070
2077
2082
2084
2084
2082
2080
2076
2071
2069
2064
2060
2056
2054
2054
2053
2053
2056
2064
2069
2076
2082
2086
2091
2097
2098
2100
2098
2094
2089
2080
2073
2070
2069
2070
2070
2068
2067
2066
2066
2068
2068
2068
2072
2075
2078
2083
2086
2090
2096
2101
2104
2108
2112
2115
2117
2118
2117
2115
2113
2107
2107
2106
2107
2104
2100
2099
2101
2112
2126
2138
2149
2154
2157
2159
2161
2164
2165
2164
2165
2162
2159
2153
2149
2144
2141
2138
2137
2140
2144
2148
2153
2158
2165
2169
2173
2178
2184
2189
2197
2198
2200
2201
2204
2208
2215
2222
2228
2231
2232
2234
2240
2245
2251
2259
2266
2272
2273
2270
2264
2253
2247
2248
2252
2257
2262
2269
2280
2294
2312
2328
2344
2358
2368
2374
2377
2380
2384
2391
2399
2408
2418
2427
2436
2442
2447
2452
2452
2451
2451
2451
2457
2463
2472
2480
2492
2503
2514
2529
2542
2554
2568
2578
2584
2588
2589
2590
2590
2594
2601
2610
2618
2628
2637
2645
2653
2659
2664
2669
2672
2673
2673
2673
2675
2677
2682
2686
2689
2690
2688
2684
2685
2683
2685
2684
2685
2688
2686
2685
2685
2682
2680
2678
2674
2666
2655
2640
2622
2603
2588
2575
2564
2553
2548
2541
2532
2521
2507
2489
2469
2446
2424
2400
2375
2350
2324
2296
2270
2244
2218
2193
2172
2157
2146
2137
2129
2124
2118
2109
2100
2087
2071
2054
2034
2014
2000
1990
1980
1971
1959
1943
1930
1919
1911
1904
1898
1894
1892
1889
1884
1880
1876
1874
1870
1864
1856
1847
1841
1833
1828
1827
1827
1830
1834
1839
1840
1840
1840
1839
1836
1836
1836
1835
1833
1830
1830
1828
1829
1828
1829
1832
1834
1833
1830
1827
1824
1824
1822
1821
1820
1824
1829
1837
1845
1848
1853
1853
1852
1849
1844
1839
1832
1825
1817
1812
1810
1812
1816
1821
1824
1828
1834
1840
1844
1844
1843
1842
1842
1841
1841
1846
1853
1860
1862
1864
1865
1865
1864
1861
1858
1855
1853
1856
1858
1857
1853
1849
1849
1847
1848
1847
1843
1839
1836
1834
1835
1836
1844
1847
1852
1855
1857
1857
1854
1853
1849
1845
1842
1841
1846
1850
1854
1857
1855
1853
1853
1856
1861
1866
1872
1873
1876
1880
1882
1884
1884
1885
1889
1891
1893
1892
1890
1887
1881
1874
1868
1864
1867
1869
1872
1876
1881
1887
1892
1893
1891
1887
1883
1877
1873
1870
1871
1874
1876
1878
1878
1877
1876
1873
1869
1867
1866
1866
1864
1863
1861
1860
1861
1866
1871
1874
1878
1882
1885
1889
1894
1901
1903
1901
1900
1897
1896
1894
1886
1880
1874
1868
1867
1867
1869
1874
1882
1893
1902
1911
1915
1916
1915
1915
1916
1916
1913
1909
1906
1903
1901
1900
1898
1895
1890
1886
1884
1884
1889
1894
1899
1907
1913
1916
1919
1921
1921
1919
1915
1908
1898
1887
1884
1886
1893
1900
1907
1914
1919
1926
1931
1928
1926
1925
1924
1919
1915
1911
1907
1903
1903
1903
1903
1903
1905
1904
1907
1910
1913
1919
1923
1924
1924
1923
1922
1926
1930
1934
1935
1933
1930
1925
1919
1918
1915
1914
1914
1917
1923
1929
1933
1936
1940
1941
1943
1944
1946
1949
1949
1946
1942
1936
1933
1929
1925
1921
1918
1914
1915
1915
1918
1922
1927
1934
1943
1947
1947
1948
1951
1954
1951
1950
1947
1943
1940
1937
1936
1935
1937
1939
1941
1946
1949
1952
1956
1956
1955
1954
1955
1956
1957
1959
1961
1965
1971
1975
1974
1974
1970
1967
1963
1959
1956
1952
1949
1946
1944
1945
1946
1950
1954
1957
1961
1965
1969
1973
1977
1979
1983
1986
1992
1996
2003
2011
2020
2027
2033
2039
2045
2050
2052
2054
2056
2056
2053
2044
2038
2033
2029
2030
2044
2067
2093
2121
2145
2165
2184
2199
2212
2223
2233
2239
2240
2235
2227
2219
2211
2201
2188
2176
2161
2151
2140
2129
2118
2106
2097
2088
2078
2072
2072
2073
2076
2080
2084
2087
2089
2089
2087
2086
2085
2084
2082
2080
2076
2070
2061
2050
2042
2036
2032
2030
2027
2023
2022
2017
2011
2006
2001
1997
1991
1983
1976
1969
1958
1949
1939
1931
1924
1914
1903
1898
1895
1897
1903
1908
1915
1919
1925
1930
1936
1940
1942
1944
1947
1949
1951
1951
1953
1959
1967
1972
1978
1975
1969
1963
1957
1952
1950
1945
1940
1935
1929
1921
1916
1914
1912
1913
1914
1921
1930
1946
1963
1983
2003
2023
2046
2073
2104
2139
2177
2218
2260
2304
2344
2381
2414
2439
2454
2461
2460
2451
2436
2415
2385
2348
2301
2246
2183
2112
2031
1946
1852
1754
1654
1550
1444
1338
1239
1155
1092
1056
1043
1056
1092
1145
1209
1281
1355
1431
1510
1592
1673
1750
1821
1885
1942
1990
2025
2050
2066
2073
2070
2056
2034
2012
1997
1983
1974
1966
1962
1960
1962
1962
1963
1959
1959
1960
1965
1969
1972
1973
1970
1965
1962
1962
1961
1963
1967
1974
1978
1981
1986
1989
1990
1992
1993
1995
1995
1994
1996
1998
2003
2007
2015
2020
2021
2019
2015
2012
2013
2011
2009
2008
2007
2007
2007
2008
2006
2005
2005
2007
2010
2012
2012
2015
2022
2028
2032
2033
2033
2030
2028
2027
2029
2033
2036
2038
2039
2040
2044
2047
2052
2056
2058
2060
2058
2059
2060
2061
2062
2064
2066
2065
2067
2072
2074
2076
2074
2070
2067
2064
2061
2059
2061
2068
2077
2087
2097
2103
2110
2114
2112
2109
2105
2103
2102
2099
2095
2090
2086
2084
2084
2085
2087
2094
2100
2105
2112
2118
2122
2128
2129
2131
2133
2134
2136
2139
2144
2150
2158
2167
2175
2181
2184
2185
2183
2182
2180
2175
2171
2170
2173
2179
2189
2201
2212
2223
2230
2235
2240
2244
2245
2247
2248
2251
2254
2258
2265
2271
2274
2278
2288
2298
2306
2315
2324
2330
2334
2335
2337
2336
2337
2344
2355
2365
2376
2383
2390
2395
2405
2415
2427
2438
2449
2460
2471
2474
2477
2475
2476
2475
2479
2487
2499
2509
2520
2528
2539
2547
2558
2567
2574
2582
2592
2603
2610
2616
2624
2628
2632
2636
2639
2642
2646
2649
2656
2660
2664
2665
2669
2670
2673
2676
2679
2680
2679
2676
2670
2666
2660
2658
2658
2657
2656
2653
2651
2647
2638
2630
2620
2609
2594
2579
2562
2544
2526
2507
2487
2471
2456
2440
2422
2402
2382
2363
2345
2327
2311
2296
2282
2266
2253
2238
2222
2203
2185
2164
2140
2117
2101
2087
2074
2064
2048
2033
2018
2004
1991
1979
1970
1962
1956
1951
1943
1937
1930
1919
1909
1902
1897
1893
1892
1891
1891
1889
1887
1886
1884
1881
1874
1865
1854
1849
1847
1851
1854
1855
1856
1855
1853
1849
1844
1841
1838
1837
1839
1846
1852
1861
1865
1865
1866
1864
1860
1854
1846
1839
1835
1832
1830
1833
1836
1839
1839
1835
1828
1823
1822
1823
1829
1837
1847
1854
1860
1862
1862
1862
1862
1858
1853
1847
1841
1838
1835
1835
1841
1847
1852
1858
1860
1861
1863
1866
1868
1867
1864
1861
1862
1864
1866
1869
1869
1869
1867
1868
1867
1866
1866
1867
1864
1864
1868
1876
1884
1895
1904
1910
1911
1908
1907
1903
1901
1899
1895
1890
1889
1890
1895
1895
1894
1894
1897
1902
1909
1916
1925
1927
1928
1937
1928
1929
1929
1930
1932
1934
1936
1940
1942
1941
1937
1929
1919
1913
1905
1901
1899
1900
1902
1903
1904
1906
1910
1915
1914
1913
1913
1910
1911
1913
1917
1922
1928
1932
1935
1933
1930
1929
1930
1929
1929
1928
1923
1921
1919
1919
1922
1924
1926
1925
1926
1925
1924
1926
1926
1925
1925
1927
1931
1932
1933
1935
1936
1937
1937
1938
1935
1930
1927
1923
1919
1917
1915
1913
1914
1914
1915
1914
1913
1914
1916
1916
1915
1915
1916
1918
1923
1925
1928
1928
1925
1922
1921
1921
1919
1921
1923
1924
1928
1929
1931
1933
1934
1935
1937
1938
1939
1934
1933
1930
1928
1925
1925
1926
1933
1938
1940
1941
1940
1939
1938
1938
1938
1937
1937
1938
1939
1943
1945
1945
1943
1939
1935
1933
1933
1936
1943
1948
1954
1958
1964
1966
1966
1963
1958
1952
1947
1945
1944
1942
1941
1940
1940
1940
1939
1937
1937
1938
1942
1947
1955
1961
1965
1969
1969
1967
1965
1961
1956
1946
1937
1931
1930
1929
1929
1930
1932
1929
1926
1919
1915
1916
1925
1936
1946
1955
1960
1966
1969
1972
1973
1974
1973
1973
1973
1973
1972
1967
1961
1951
1943
1939
1937
1938
1941
1945
1952
1957
1962
1964
1966
1965
1968
1969
1970
1971
1973
1975
1975
1975
1974
1969
1966
1959
1954
1953
1954
1957
1960
1963
1964
1963
1962
1960
1956
1952
1951
1951
1950
1947
1942
1936
1932
1928
1930
1934
1940
1946
1952
1957
1962
1963
1963
1961
1959
1961
1964
1964
1963
1963
1962
1959
1956
1953
1951
1950
1947
1945
1947
1946
1943
1940
1940
1941
1945
1948
1954
1957
1958
1957
1955
1954
1955
1957
1959
1962
1968
1974
1981
1985
1987
1986
1987
1987
1988
1992
1999
2006
2011
2015
2016
2015
2015
2011
2006
2005
2003
2001
1999
2001
2003
2009
2012
2015
2020
2024
2030
2039
2048
2056
2068
2084
2101
2124
2151
2177
2201
2221
2234
2240
2240
2237
2230
2222
2212
2200
2191
2181
2169
2156
2145
2136
2125
2117
2111
2101
2089
2078
2072
2066
2063
2060
2059
2060
2058
2058
2060
2060
2062
2063
2066
2068
2066
2060
2052
2041
2034
2030
2028
2026
2023
2019
2018
2015
2010
2007
1999
1989
1976
1962
1950
1939
1929
1922
1915
1910
1906
1904
1904
1904
1907
1912
1914
1917
1919
1925
1927
1928
1926
1924
1921
1917
1915
1916
1919
1923
1929
1933
1934
1934
1935
1933
1933
1932
1928
1923
1916
1909
1903
1899
1896
1892
1892
1890
1891
1891
1893
1898
1909
1922
1938
1953
1966
1981
1998
2018
2045
2078
2121
2168
2217
2267
2315
2360
2401
2436
2459
2476
2486
2491
2494
2492
2477
2454
2418
2370
2313
2246
2173
2089
1999
1902
1802
1700
1593
1484
1375
1271
1185
1117
1072
1054
1064
1095
1141
1199
1262
1336
1413
1491
1573
1647
1718
1783
1843
1900
1945
1980
2000
2008
2013
2015
2014
2009
2003
1996
1985
1973
1960
1949
1939
1929
1924
1921
1919
1919
1923
1929
1938
1946
1956
1967
1976
1982
1982
1982
1978
1974
1970
1967
1965
1963
1961
1962
1966
1969
1973
1978
1983
1986
1987
1983
1982
1980
1978
1979
1980
1981
1981
1979
1978
1979
1981
1983
1986
1989
1992
1993
1998
2001
2004
2005
2007
2005
2005
2002
2001
1999
2000
1997
1993
1990
1988
1989
2000
2010
2021
2028
2036
2044
2055
2062
2068
2069
2068
2064
2061
2056
2054
2051
2050
2052
2052
2050
2050
2052
2053
2055
2059
2060
2064
2068
2072
2072
2071
2071
2072
2076
2080
2081
2085
2088
2090
2091
2091
2092
2093
2094
2095
2096
2097
2098
2101
2105
2110
2114
2120
2123
2124
2120
2121
2125
2131
2136
2141
2146
2150
2154
2157
2164
2170
2178
2185
2188
2188
2185
2184
2182
2181
2179
2178
2182
2188
2199
2209
2222
2233
2243
2253
2257
2264
2271
2274
2273
2272
2272
2276
2281
2287
2293
2298
2301
2308
2312
2315
2321
2326
2332
2340
2345
2353
2359
2365
2375
2382
2389
2394
2397
2401
2403
2409
2418
2430
2442
2457
2470
2482
2496
2511
2522
2532
2537
2540
2544
2545
2548
2552
2560
2564
2566
2572
2578
2584
2592
2599
2607
2618
2627
2636
2644
2650
2652
2655
2660
2668
2674
2681
2688
2695
2703
2710
2721
2725
2726
2725
2722
2721
2716
2714
2710
2708
2702
2698
2695
2694
2691
2686
2683
2679
2674
2669
2664
2655
2648
2639
2628
2612
2596
2580
2560
2542
2526
2507
2489
2472
2455
2436
2417
2399
2377
2356
2336
2320
2301
2282
2263
2242
2222
2200
2178
2159
2141
2124
2110
2096
2082
2070
2063
2056
2049
2040
2031
2025
2016
2004
1990
1977
1964
1955
1943
1931
1923
1914
1910
1905
1899
1895
1891
1889
1887
1887
1883
1877
1869
1861
1853
1849
1849
1852
1856
1864
1868
1872
1870
1867
1860
1852
1844
1835
1830
1826
1825
1828
1833
1838
1843
1845
1847
1847
1847
1850
1852
1856
1857
1855
1856
1856
1857
1858
1859
1861
1865
1864
1862
1858
1854
1853
1852
1850
1849
1850
1853
1858
1864
1867
1870
1873
1873
1875
1878
1881
1882
1881
1881
1879
1876
1870
1867
1867
1866
1868
1869
1869
1871
1871
1874
1874
1877
1880
1883
1885
1886
1888
1890
1892
1893
1894
1895
1894
1895
1895
1895
1896
1897
1896
1895
1892
1891
1892
1892
1892
1891
1889
1888
1885
1886
1890
1894
1900
1910
1907
1913
1918
1919
1924
1927
1926
1924
1919
1911
1898
1888
1884
1884
1886
1889
1893
1895
1897
1899
1899
1899
1903
1910
1915
1918
1919
1916
1914
1911
1909
1905
1901
1901
1900
1898
1896
1895
1895
1892
1887
1878
1872
1870
1871
1875
1881
1886
1889
1890
1887
1886
1885
1886
1889
1893
1899
1902
1907
1912
1916
1917
1915
1910
1907
1903
1901
1898
1896
1893
1890
1887
1883
1880
1880
1877
1876
1874
1874
1876
1878
1881
1884
1887
1890
1895
1898
1901
1903
1904
1906
1908
1908
1906
1901
1894
1886
1881
1877
1875
1873
1871
1868
1863
1863
1864
1869
1876
1881
1884
1887
1890
1893
1897
1900
1902
1904
1907
1907
1902
1891
1882
1879
1881
1884
1885
1887
1889
1892
1893
1895
1894
1895
1896
1897
1897
1900
1898
1898
1896
1893
1892
1889
1889
1889
1890
1891
1890
1890
1887
1884
1884
1885
1887
1894
1901
1907
1911
1913
1913
1909
1904
1898
1893
1890
1887
1886
1886
1890
1891
1891
1891
1892
1891
1891
1893
1895
1895
1899
1900
1901
1904
1908
1910
1912
1913
1912
1912
1910
1903
1898
1894
1889
1878
1871
1871
1874
1881
1889
1893
1899
1903
1907
1912
1917
1918
1919
1919
1921
1919
1919
1921
1920
1919
1916
1913
1915
1913
1911
1912
1915
1917
1918
1919
1924
1924
1922
1919
1915
1911
1911
1912
1922
1930
1938
1941
1942
1943
1942
1943
1945
1942
1939
1936
1933
1933
1935
1934
1930
1924
1922
1921
1924
1929
1937
1944
1949
1951
1952
1950
1948
1946
1946
1949
1952
1952
1946
1939
1933
1931
1931
1934
1938
1943
1946
1948
1948
1946
1939
1932
1929
1928
1930
1934
1938
1940
1943
1948
1957
1965
1971
1972
1972
1974
1973
1973
1973
1974
1975
1976
1975
1973
1967
1959
1956
1953
1954
1947
1957
1958
1962
1966
1968
1971
1973
1975
1977
1978
1980
1979
1979
1980
1986
1995
2006
2015
2024
2031
2037
2042
2045
2049
2053
2055
2060
2064
2070
2074
2077
2074
2069
2062
2054
2049
2052
2061
2075
2095
2115
2137
2159
2178
2196
2214
2229
2240
2248
2251
2249
2243
2231
2218
2205
2191
2176
2160
2144
2131
2120
2114
2108
2100
2094
2090
2094
2099
2104
2108
2113
2114
2112
2105
2096
2087
2084
2082
2081
2084
2085
2088
2090
2092
2089
2085
2079
2069
2060
2052
2044
2038
2034
2028
2020
2010
1996
1982
1969
1956
1944
1935
1929
1927
1927
1928
1931
1933
1936
1940
1945
1950
1956
1962
1966
1972
1974
1972
1967
1959
1950
1946
1949
1955
1962
1969
1973
1975
1977
1979
1978
1979
1981
1979
1977
1976
1975
1975
1975
1975
1977
1980
1978
1976
1972
1969
1967
1968
1969
1974
1981
1991
2003
2017
2033
2060
2093
2133
2178
2225
2276
2325
2372
2414
2450
2477
2498
2511
2520
2525
2525
2513
2486
2444
2390
2334
2272
2204
2130
2051
1958
1860
1758
1651
1541
1427
1320
1226
1153
1106
1086
1090
1117
1162
1220
1286
1356
1432
1507
1593
1675
1752
1823
1885
1939
1980
2013
2035
2048
2056
2056
2054
2045
2038
2026
2012
1998
1986
1979
1974
1975
1976
1980
1983
1981
1981
1984
1992
1999
2005
2011
2015
2022
2023
2023
2020
2017
2017
2021
2026
2034
2038
2040
2040
2038
2034
2031
2033
2035
2039
2043
2048
2052
2055
2057
2060
2063
2066
2069
2065
2058
2052
2044
2037
2032
2030
2032
2037
2044
2049
2053
2053
2053
2049
2046
2044
2048
2052
2058
2064
2066
2069
2073
2076
2082
2086
2090
2090
2087
2083
2080
2078
2079
2081
2084
2088
2093
2095
2097
2096
2100
2106
2112
2118
2122
2123
2121
2120
2120
2121
2123
2122
2120
2120
2121
2122
2124
2129
2135
2141
2142
2144
2143
2141
2143
2146
2152
2157
2160
2161
2161
2162
2164
2167
2167
2170
2173
2175
2176
2180
2181
2183
2186
2189
2194
2196
2196
2198
2201
2204
2207
2208
2209
2209
2205
2201
2198
2202
2207
2212
2221
2231
2240
2247
2253
2259
2264
2271
2279
2287
2296
2302
2307
2309
2311
2309
2305
2301
2304
2306
2312
2318
2324
2329
2331
2338
2348
2358
2366
2373
2378
2383
2388
2393
2402
2413
2424
2436
2446
2459
2468
2477
2485
2491
2497
2502
2509
2512
2518
2526
2534
2543
2553
2563
2571
2580
2588
2595
2604
2609
2613
2616
2619
2622
2624
2626
2630
2634
2638
2642
2647
2652
2658
2662
2668
2675
2683
2692
2701
2708
2711
2711
2710
2710
2710
2708
2706
2705
2707
2710
2712
2710
2707
2703
2701
2702
2700
2702
2700
2695
2685
2673
2656
2637
2615
2596
2578
2560
2543
2528
2518
2506
2490
2470
2450
2429
2409
2392
2375
2360
2345
2328
2309
2286
2265
2244
2225
2205
2187
2168
2150
2133
2118
2105
2093
2082
2072
2064
2052
2037
2019
1999
1981
1964
1951
1940
1933
1927
1924
1922
1917
1911
1903
1898
1894
1892
1890
1884
1878
1873
1869
1866
1864
1860
1857
1854
1853
1849
1846
1844
1841
1839
1837
1834
1832
1831
1831
1831
1829
1826
1824
1825
1826
1825
1824
1824
1825
1827
1828
1829
1827
1829
1831
1834
1836
1838
1841
1843
1847
1850
1846
1841
1837
1831
1828
1824
1823
1822
1822
1823
1823
1824
1826
1828
1832
1834
1838
1845
1853
1859
1864
1868
1869
1869
1868
1868
1865
1861
1857
1851
1847
1842
1836
1831
1829
1830
1835
1839
1845
1853
1860
1865
1870
1872
1875
1877
1877
1877
1878
1880
1882
1885
1885
1885
1884
1882
1881
1879
1876
1872
1872
1873
1872
1873
1874
1876
1875
1871
1866
1862
1861
1861
1864
1867
1872
1876
1878
1881
1884
1889
1894
1895
1896
1897
1898
1899
1895
1890
1885
1882
1881
1881
1884
1888
1891
1894
1898
1901
1900
1897
1893
1891
1889
1888
1886
1884
1881
1878
1876
1878
1881
1879
1879
1879
1881
1883
1884
1884
1885
1890
1898
1907
1914
1916
1916
1911
1905
1898
1891
1887
1886
1884
1887
1887
1889
1890
1890
1889
1888
1887
1889
1886
1884
1882
1882
1881
1883
1884
1883
1883
1883
1886
1891
1894
1895
1898
1900
1903
1905
1902
1903
1905
1909
1911
1912
1909
1904
1900
1896
1888
1881
1878
1875
1875
1875
1877
1881
1885
1888
1894
1901
1905
1909
1912
1913
1911
1907
1903
1901
1900
1903
1905
1906
1909
1913
1916
1919
1925
1929
1933
1931
1931
1930
1930
1929
1928
1926
1924
1919
1916
1911
1909
1909
1911
1915
1918
1921
1926
1929
1933
1933
1933
1930
1928
1928
1927
1928
1928
1930
1932
1936
1943
1949
1953
1955
1954
1950
1942
1939
1939
1940
1934
1933
1929
1925
1919
1913
1909
1909
1909
1916
1922
1930
1933
1938
1942
1947
1950
1953
1954
1956
1957
1951
1948
1941
1937
1937
1940
1945
1953
1960
1966
1971
1975
1981
1986
1990
1991
1988
1981
1975
1967
1963
1961
1961
1959
1958
1958
1959
1960
1960
1961
1965
1967
1970
1972
1972
1972
1971
1968
1966
1965
1964
1964
1968
1968
1973
1976
1980
1983
1983
1984
1986
1988
1986
1981
1975
1969
1959
1949
1946
1945
1948
1948
1951
1954
1962
1973
1985
1995
1999
2003
2004
2005
2003
1997
1992
1988
1985
1981
1978
1975
1974
1973
1966
1961
1958
1956
1956
1956
1954
1954
1957
1963
1972
1981
1991
1996
2005
2010
2012
2011
2007
2001
1996
1994
1994
1991
1988
1983
1980
1978
1978
1980
1981
1983
1983
1986
1989
1993
1997
2001
2004
2005
2007
2007
2006
2005
2003
2000
1996
1992
1988
1981
1976
1975
1976
1983
1988
1994
1997
2003
2007
2007
2004
1999
1995
1992
1989
1989
1990
1993
1997
2004
2011
2019
2024
2026
2030
2033
2036
2039
2040
2041
2040
2036
2031
2026
2024
2025
2031
2039
2046
2055
2065
2075
2086
2093
2096
2096
2094
2091
2089
2084
2081
2077
2079
2082
2092
2107
2129
2152
2175
2197
2220
2242
2261
2277
2290
2297
2296
2292
2283
2268
2254
2236
2219
2200
2181
2163
2148
2137
2129
2124
2122
2118
2115
2114
2114
2116
2115
2116
2116
2109
2103
2099
2095
2093
2095
2095
2094
2094
2094
2093
2094
2094
2097
2098
2097
2095
2091
2085
2076
2063
2045
2026
2007
1987
1969
1956
1949
1943
1938
1934
1932
1933
1935
1935
1933
1932
1934
1937
1940
1944
1950
1956
1961
1966
1970
1971
1972
1974
1978
1978
1981
1983
1986
1982
1978
1973
1969
1965
1965
1965
1966
1965
1964
1960
1953
1949
1947
1948
1951
1954
1957
1958
1960
1961
1962
1963
1966
1971
1983
2003
2019
2044
2073
2107
2146
2191
2237
2285
2334
2381
2425
2460
2486
2502
2511
2508
2498
2480
2451
2412
2364
2306
2245
2177
2100
2015
1926
1837
1743
1646
1545
1440
1332
1234
1148
1084
1046
1030
1037
1062
1103
1152
1208
1273
1353
1442
1532
1621
1705
1783
1854
1918
1972
2015
2044
2063
2073
2078
2076
2063
2044
2023
2004
1983
1970
1958
1949
1945
1944
1946
1951
1959
1966
1974
1983
1989
1995
1998
1999
1999
2001
2001
2004
2007
2012
2014
2014
2015
2015
2014
2013
2012
2012
2011
2010
2009
2010
2013
2018
2021
2020
2018
2017
2015
2017
2021
2023
2025
2024
2024
2025
2025
2027
2031
2037
2042
2048
2053
2060
2066
2071
2074
2076
2076
2077
2074
2073
2072
2071
2070
2068
2068
2070
2074
2078
2082
2085
2088
2088
2084
2082
2080
2081
2082
2086
2088
2092
2096
2101
2104
2107
2110
2113
2112
2108
2107
2107
2112
2116
2118
2119
2122
2121
2119
2117
2119
2118
2117
2115
2113
2108
2110
2115
2122
2130
2137
2143
2147
2150
2152
2152
2155
2159
2164
2168
2170
2171
2171
2173
2174
2176
2176
2176
2174
2172
2171
2172
2176
2179
2181
2183
2187
2193
2201
2207
2212
2218
2226
2234
2241
2247
2254
2262
2269
2276
2281
2284
2289
2291
2293
2293
2292
2292
2290
2289
2292
2300
2308
2317
2323
2332
2341
2356
2367
2373
2381
2389
2393
2398
2402
2408
2417
2424
2430
2435
2440
2447
2454
2460
2467
2475
2485
2497
2506
2517
2528
2541
2550
2559
2564
2564
2565
2567
2572
2582
2593
2604
2612
2621
2629
2638
2645
2652
2657
2663
2668
2672
2675
2677
2677
2679
2681
2685
2690
2691
2693
2698
2702
2707
2711
2717
2723
2726
2729
2731
2730
2728
2727
2724
2721
2715
2712
2709
2705
2701
2694
2687
2683
2677
2671
2663
2651
2635
2616
2595
2576
2561
2546
2531
2514
2498
2485
2472
2453
2436
2419
2400
2375
2352
2330
2310
2289
2273
2262
2250
2237
2221
2205
2185
2166
2148
2131
2116
2100
2084
2070
2058
2046
2036
2024
2009
1992
1976
1964
1951
1938
1928
1917
1908
1902
1900
1897
1894
1888
1879
1865
1852
1844
1838
1837
1837
1839
1841
1844
1848
1852
1855
1857
1856
1855
1858
1860
1859
1855
1848
1842
1839
1842
1846
1851
1853
1855
1857
1859
1861
1865
1867
1869
1870
1870
1870
1869
1869
1865
1861
1855
1853
1852
1853
1859
1865
1871
1879
1892
1909
1921
1924
1921
1914
1900
1886
1873
1864
1856
1850
1845
1837
1830
1826
1823
1824
1827
1832
1838
1844
1848
1852
1856
1864
1872
1881
1888
1895
1898
1899
1901
1902
1903
1899
1893
1886
1880
1874
1871
1868
1870
1872
1876
1880
1883
1885
1886
1887
1886
1888
1889
1890
1891
1890
1892
1894
1898
1901
1905
1908
1911
1911
1910
1905
1901
1898
1895
1894
1896
1896
1898
1900
1903
1906
1911
1912
1913
1912
1909
1907
1906
1905
1903
1902
1903
1903
1900
1898
1895
1894
1898
1906
1911
1916
1917
1917
1914
1911
1911
1911
1910
1909
1908
1908
1907
1904
1901
1900
1901
1904
1908
1907
1903
1902
1901
1899
1896
1895
1896
1897
1899
1902
1906
1909
1912
1911
1906
1902
1898
1895
1890
1888
1888
1889
1890
1891
1895
1900
1904
1906
1906
1906
1907
1909
1911
1911
1909
1905
1903
1902
1901
1903
1907
1909
1910
1908
1902
1896
1887
1879
1874
1871
1871
1873
1879
1887
1895
1901
1904
1903
1895
1889
1884
1882
1881
1881
1882
1885
1892
1901
1908
1916
1918
1919
1921
1923
1924
1922
1922
1919
1918
1915
1912
1909
1907
1904
1900
1897
1896
1895
1897
1897
1901
1906
1911
1915
1917
1921
1924
1924
1925
1924
1921
1917
1915
1917
1916
1916
1916
1916
1915
1917
1921
1926
1932
1933
1934
1933
1932
1931
1927
1924
1922
1921
1919
1915
1911
1912
1914
1916
1919
1924
1927
1933
1937
1936
1935
1938
1937
1935
1932
1931
1931
1932
1932
1932
1932
1931
1932
1934
1936
1939
1941
1941
1940
1940
1938
1938
1939
1937
1940
1940
1940
1940
1941
1943
1945
1948
1952
1957
1962
1966
1968
1969
1967
1957
1947
1939
1936
1938
1944
1953
1962
1967
1972
1973
1974
1970
1965
1958
1952
1945
1939
1936
1932
1931
1930
1932
1932
1935
1940
1945
1948
1947
1945
1940
1936
1935
1935
1935
1940
1946
1954
1958
1962
1963
1963
1961
1959
1956
1950
1943
1936
1935
1936
1937
1938
1940
1942
1947
1953
1959
1962
1963
1959
1955
1953
1951
1950
1952
1957
1965
1974
1982
1982
1981
1976
1970
1969
1969
1967
1964
1961
1959
1956
1955
1955
1958
1966
1975
1981
1981
1979
1978
1980
1983
1987
1993
1996
1998
2001
2006
2008
2001
1992
1987
1982
1985
1990
1999
2006
2015
2023
2033
2046
2056
2058
2054
2050
2045
2043
2042
2044
2050
2064
2080
2096
2116
2134
2156
2180
2201
2219
2232
2241
2247
2248
2243
2232
2221
2207
2190
2170
2149
2129
2117
2110
2109
2112
2114
2117
2116
2108
2101
2101
2104
2105
2107
2108
2110
2110
2109
2108
2106
2102
2094
2082
2068
2058
2051
2049
2050
2052
2054
2055
2052
2049
2043
2036
2027
2013
1998
1978
1962
1948
1940
1933
1927
1919
1915
1913
1917
1921
1927
1930
1933
1933
1937
1941
1946
1947
1942
1934
1930
1928
1928
1928
1927
1931
1941
1945
1945
1944
1945
1949
1952
1952
1950
1945
1942
1942
1943
1948
1953
1957
1960
1959
1960
1960
1957
1955
1956
1955
1954
1955
1955
1958
1962
1973
1986
2001
2019
2041
2070
2102
2141
2185
2230
2274
2316
2357
2391
2414
2426
2431
2430
2425
2413
2397
2374
2341
2300
2253
2197
2133
2064
1984
1897
1803
1701
1594
1481
1365
1251
1150
1064
999
961
951
969
1009
1062
1125
1197
1275
1358
1444
1533
1621
1705
1782
1854
1913
1959
1997
2027
2051
2064
2070
2067
2060
2047
2032
2017
2000
1978
1961
1947
1938
1933
1934
1939
1948
1959
1970
1982
1994
2004
2013
2022
2026
2029
2030
2031
2028
2027
2026
2025
2018
2017
2019
2023
2027
2029
2028
2027
2022
2019
2019
2021
2025
2031
2037
2038
2038
2036
2034
2035
2037
2038
2037
2037
2035
2033
2032
2034
2036
2037
2039
2041
2045
2049
2053
2057
2062
2067
2074
2080
2084
2085
2087
2087
2087
2089
2092
2095
2097
2098
2096
2095
2094
2093
2096
2100
2100
2100
2100
2097
2098
2100
2102
2105
2108
2109
2110
2116
2121
2124
2126
2127
2127
2128
2132
2138
2146
2152
2156
2162
2164
2160
2156
2152
2152
2152
2152
2153
2155
2157
2163
2167
2170
2170
2169
2168
2169
2169
2171
2172
2172
2173
2176
2181
2185
2190
2196
2205
2213
2223
2227
2225
2224
2225
2227
2230
2234
2237
2241
2242
2242
2242
2242
2240
2237
2236
2238
2243
2251
2261
2271
2283
2291
2299
2306
2314
2321
2328
2334
2338
2345
2352
2358
2366
2369
2374
2378
2383
2388
2396
2402
2408
2413
2418
2421
2425
2430
2436
2444
2455
2467
2478
2486
2498
2512
2525
2537
2547
2556
2565
2573
2577
2581
2581
2582
2578
2577
2580
2588
2598
2606
2613
2620
2629
2638
2647
2653
2658
2666
2672
2679
2684
2693
2703
2716
2729
2741
2748
2756
2767
2774
2776
2775
2773
2768
2761
2752
2743
2731
2723
2716
2713
2711
2710
2707
2703
2697
2693
2688
2684
2683
2678
2672
2662
2646
2628
2609
2593
2576
2556
2534
2511
2486
2460
2431
2407
2386
2366
2349
2336
2321
2301
2283
2265
2247
2231
2213
2199
2187
2176
2160
2143
2125
2104
2088
2076
2066
2059
2050
2039
2024
2009
1996
1978
1959
1945
1936
1931
1926
1924
1924
1923
1917
1912
1907
1901
1895
1892
1888
1884
1879
1874
1871
1868
1863
1856
1851
1847
1844
1843
1841
1842
1843
1841
1842
1847
1852
1854
1853
1849
1842
1828
1818
1814
1816
1818
1822
1827
1832
1838
1841
1843
1844
1844
1845
1847
1849
1849
1845
1837
1826
1815
1809
1804
1804
1804
1809
1816
1825
1832
1840
1847
1850
1851
1853
1857
1861
1865
1868
1869
1867
1864
1862
1860
1856
1853
1850
1850
1851
1854
1858
1861
1862
1860
1861
1861
1863
1867
1871
1875
1877
1877
1874
1874
1871
1871
1872
1877
1879
1877
1875
1873
1871
1869
1867
1867
1867
1869
1871
1873
1873
1877
1884
1893
1897
1897
1897
1896
1894
1894
1894
1895
1895
1896
1898
1899
1901
1902
1900
1895
1889
1884
1881
1881
1884
1886
1888
1891
1894
1896
1899
1901
1903
1903
1906
1909
1911
1909
1907
1905
1903
1900
1896
1896
1897
1897
1897
1897
1899
1897
1894
1891
1887
1883
1883
1885
1887
1890
1890
1891
1891
1891
1890
1894
1898
1897
1894
1889
1887
1888
1893
1895
1896
1896
1893
1890
1888
1888
1890
1893
1893
1891
1890
1892
1893
1895
1902
1911
1921
1930
1936
1937
1934
1926
1916
1907
1901
1897
1896
1897
1899
1898
1898
1897
1894
1890
1884
1879
1874
1873
1873
1876
1878
1881
1886
1889
1893
1893
1891
1890
1890
1892
1894
1899
1900
1902
1903
1907
1908
1907
1907
1905
1903
1898
1895
1894
1893
1898
1903
1909
1910
1907
1903
1901
1899
1895
1892
1896
1902
1909
1918
1927
1930
1931
1928
1927
1924
1921
1917
1915
1911
1905
1899
1893
1889
1889
1893
1901
1906
1912
1918
1926
1932
1935
1935
1932
1926
1921
1918
1918
1919
1919
1922
1926
1932
1935
1938
1941
1942
1945
1945
1943
1937
1933
1933
1937
1939
1940
1943
1942
1940
1938
1936
1934
1932
1931
1931
1929
1925
1926
1928
1934
1939
1942
1941
1938
1938
1937
1938
1939
1941
1940
1942
1942
1943
1944
1948
1950
1950
1952
1954
1955
1954
1949
1941
1937
1933
1932
1930
1932
1936
1937
1939
1939
1938
1940
1942
1946
1948
1952
1955
1959
1961
1961
1960
1959
1957
1957
1956
1956
1953
1952
1952
1953
1956
1958
1962
1968
1974
1978
1979
1982
1981
1979
1972
1967
1965
1963
1965
1970
1975
1980
1979
1979
1979
1976
1974
1970
1965
1960
1960
1966
1973
1982
1993
2002
2005
2004
1997
1991
1983
1982
1980
1980
1980
1979
1980
1985
1989
1992
1997
1998
1999
1996
1994
1992
1993
1991
1989
1989
1992
1995
1997
1996
1993
1992
1993
1995
2000
2008
2017
2025
2031
2034
2036
2040
2041
2043
2042
2042
2043
2043
2046
2048
2049
2052
2055
2060
2062
2062
2065
2071
2076
2081
2085
2091
2103
2117
2136
2161
2185
2209
2233
2257
2281
2301
2314
2318
2320
2317
2309
2300
2286
2269
2250
2226
2202
2182
2162
2140
2135
2124
2116
2114
2113
2115
2118
2125
2132
2139
2144
2146
2145
2141
2138
2134
2128
2122
2119
2114
2108
2101
2093
2084
2073
2062
2054
2052
2048
2042
2035
2026
2015
2007
1998
1991
1985
1980
1974
1972
1970
1965
1963
1962
1965
1967
1967
1967
1965
1963
1959
1956
1955
1958
1964
1967
1967
1964
1960
1958
1956
1953
1950
1950
1952
1957
1962
1969
1971
1972
1973
1977
1983
1989
1992
1990
1986
1978
1973
1969
1966
1964
1960
1956
1953
1954
1956
1959
1963
1969
1979
1997
2017
2042
2070
2103
2141
2183
2228
2270
2314
2353
2390
2423
2447
2464
2473
2480
2482
2476
2456
2423
2381
2329
2270
2209
2140
2062
1975
1883
1788
1689
1586
1480
1374
1268
1179
1108
1061
1040
1044
1069
1108
1159
1223
1294
1369
1448
1534
1618
1697
1771
1839
1899
1950
1988
2015
2035
2049
2056
2054
2047
2037
2025
2014
2004
1996
1988
1981
1975
1973
1978
1986
1995
2001
2007
2010
2009
2011
2012
2012
2011
2010
2009
2007
2006
2007
2008
2009
2010
2013
2017
2021
2023
2020
2013
2008
2001
2000
2005
2015
2029
2042
2052
2054
2056
2054
2052
2049
2050
2050
2050
2049
2046
2046
2049
2048
2048
2050
2051
2054
2060
2065
2067
2068
2068
2068
2068
2069
2070
2072
2073
2075
2076
2076
2076
2075
2077
2080
2082
2085
2087
2089
2090
2093
2096
2098
2101
2107
2112
2121
2125
2130
2129
2128
2124
2120
2116
2112
2106
2102
2104
2105
2104
2103
2106
2112
2118
2125
2131
2136
2138
2140
2141
2141
2142
2147
2153
2155
2157
2156
2156
2154
2154
2154
2154
2156
2156
2156
2158
2158
2162
2164
2168
2173
2178
2184
2187
2185
2184
2187
2193
2198
2204
2207
2213
2217
2219
2221
2223
2224
2226
2229
2233
2234
2235
2233
2235
2238
2246
2255
2264
2271
2275
2281
2289
2298
2308
2313
2320
2328
2335
2344
2353
2361
2366
2373
2378
2380
2381
2383
2391
2402
2412
2424
2435
2444
2453
2459
2469
2476
2481
2487
2493
2498
2504
2512
2518
2527
2533
2541
2550
2555
2558
2561
2565
2570
2574
2577
2583
2590
2599
2606
2616
2626
2637
2648
2662
2676
2689
2702
2711
2715
2716
2713
2709
2708
2711
2718
2723
2725
2725
2724
2727
2732
2737
2743
2747
2747
2746
2744
2742
2738
2733
2729
2723
2715
2706
2694
2682
2666
2650
2639
2631
2625
2615
2602
2588
2574
2562
2551
2539
2524
2509
2491
2468
2441
2410
2382
2354
2327
2301
2279
2259
2238
2215
2193
2172
2154
2138
2128
2120
2108
2096
2085
2071
2055
2041
2029
2018
2007
1996
1987
1978
1973
1968
1963
1956
1949
1943
1940
1936
1929
1919
1911
1902
1889
1878
1869
1862
1854
1849
1844
1843
1842
1846
1852
1853
1855
1857
1860
1861
1861
1857
1852
1848
1842
1838
1835
1834
1836
1838
1840
1843
1847
1850
1850
1853
1853
1850
1846
1843
1839
1833
1830
1831
1832
1835
1839
1839
1841
1842
1844
1849
1855
1861
1863
1864
1862
1860
1856
1854
1851
1846
1842
1840
1841
1842
1843
1843
1840
1838
1837
1837
1836
1837
1839
1845
1848
1853
1859
1861
1855
1849
1848
1850
1854
1856
1856
1852
1851
1857
1864
1872
1879
1888
1897
1907
1915
1919
1921
1921
1917
1912
1910
1907
1903
1900
1896
1893
1889
1885
1883
1883
1882
1883
1886
1889
1891
1892
1897
1900
1903
1903
1901
1898
1896
1892
1887
1883
1880
1875
1874
1874
1877
1880
1884
1889
1893
1896
1897
1900
1901
1901
1899
1897
1895
1890
1889
1890
1894
1898
1903
1903
1901
1899
1900
1905
1908
1911
1914
1918
1919
1919
1916
1913
1911
1903
1897
1893
1886
1875
1871
1876
1884
1891
1898
1907
1916
1922
1923
1923
1924
1927
1933
1939
1941
1941
1939
1934
1929
1922
1913
1905
1899
1895
1893
1894
1894
1898
1904
1915
1926
1938
1945
1948
1942
1938
1936
1936
1938
1937
1934
1929
1919
1909
1903
1897
1892
1886
1884
1881
1879
1879
1883
1888
1891
1895
1898
1902
1903
1902
1902
1901
1901
1902
1905
1911
1918
1924
1926
1924
1921
1919
1915
1910
1905
1902
1899
1900
1902
1907
1912
1916
1918
1921
1924
1925
1924
1919
1916
1918
1922
1924
1923
1923
1926
1930
1932
1929
1930
1929
1933
1937
1940
1943
1944
1945
1943
1939
1934
1929
1926
1924
1922
1924
1923
1924
1923
1922
1921
1917
1915
1915
1916
1919
1924
1933
1941
1946
1951
1952
1954
1955
1959
1962
1964
1965
1966
1966
1964
1962
1960
1959
1958
1954
1953
1950
1946
1940
1935
1935
1937
1942
1948
1953
1956
1959
1961
1963
1961
1959
1957
1956
1951
1945
1945
1949
1953
1959
1961
1965
1967
1967
1968
1967
1965
1960
1955
1954
1952
1953
1958
1963
1966
1969
1972
1977
1977
1974
1971
1968
1963
1958
1955
1951
1948
1947
1949
1952
1953
1953
1955
1957
1956
1954
1952
1952
1951
1949
1950
1950
1950
1949
1948
1949
1950
1950
1948
1946
1943
1941
1937
1936
1936
1938
1942
1949
1955
1961
1964
1966
1967
1966
1966
1969
1972
1975
1975
1970
1960
1947
1937
1934
1929
1926
1926
1933
1942
1953
1962
1972
1978
1980
1979
1975
1972
1964
1954
1947
1940
1935
1933
1935
1939
1942
1943
1945
1949
1956
1964
1973
1979
1981
1982
1981
1979
1976
1973
1970
1969
1968
1971
1969
1967
1963
1961
1959
1955
1951
1952
1957
1963
1971
1977
1986
1993
2000
2007
2014
2019
2023
2028
2030
2029
2028
2027
2027
2028
2032
2039
2043
2047
2052
2056
2063
2065
2065
2059
2054
2051
2053
2063
2078
2095
2115
2140
2166
2192
2216
2237
2255
2268
2276
2278
2281
2280
2274
2261
2244
2220
2197
2178
2161
2145
2132
2118
2105
2093
2086
2085
2089
2093
2096
2098
2102
2105
2106
2102
2100
2096
2091
2087
2084
2082
2078
2076
2077
2075
2071
2066
2064
2060
2055
2047
2042
2036
2027
2018
2010
2002
1993
1986
1977
1965
1951
1935
1924
1914
1908
1903
1903
1905
1906
1907
1912
1917
1921
1927
1933
1936
1937
1937
1941
1943
1945
1948
1951
1955
1961
1965
1965
1962
1957
1953
1954
1954
1954
1953
1950
1948
1944
1942
1941
1938
1935
1936
1943
1948
1952
1956
1961
1963
1964
1969
1974
1983
1995
2010
2029
2053
2085
2121
2163
2207
2254
2304
2350
2395
2434
2463
2483
2493
2494
2488
2477
2455
2422
2380
2329
2269
2207
2138
2066
1983
1893
1796
1697
1590
1478
1370
1250
1148
1066
1007
980
981
1006
1050
1106
1171
1242
1319
1401
1488
1575
1657
1736
1809
1875
1931
1979
2018
2044
2059
2067
2069
2064
2052
2037
2021
2005
1989
1977
1965
1957
1952
1951
1953
1957
1964
1974
1983
1996
2004
2011
2015
2013
2009
2007
2004
2003
2004
2006
2009
2012
2014
2014
2009
1999
1994
1996
1998
2003
2009
2018
2029
2035
2043
2050
2055
2057
2059
2060
2060
2059
2056
2055
2055
2054
2055
2057
2059
2061
2063
2065
2065
2063
2060
2060
2060
2062
2067
2074
2079
2082
2086
2088
2089
2088
2087
2089
2089
2086
2084
2082
2082
2082
2084
2088
2093
2098
2101
2105
2108
2104
2095
2089
2087
2088
2089
2089
2091
2096
2103
2110
2116
2114
2112
2112
2114
2117
2122
2129
2137
2143
2147
2151
2154
2156
2156
2158
2157
2160
2163
2165
2166
2165
2165
2162
2157
2153
2153
2155
2161
2166
2171
2178
2184
2187
2191
2194
2195
2197
2199
2202
2203
2203
2203
2202
2203
2208
2214
2222
2229
2238
2248
2258
2265
2272
2274
2278
2281
2283
2286
2287
2286
2286
2287
2285
2284
2287
2292
2299
2306
2312
2318
2327
2336
2344
2348
2354
2364
2375
2387
2400
2412
2424
2430
2440
2444
2448
2453
2460
2465
2468
2470
2473
2477
2484
2493
2505
2517
2528
2538
2547
2556
2563
2573
2584
2596
2606
2616
2622
2625
2629
2632
2637
2641
2644
2653
2662
2669
2674
2681
2688
2697
2706
2717
2726
2733
2738
2742
2746
2753
2756
2760
2764
2766
2768
2770
2772
2773
2773
2771
2768
2762
2754
2748
2743
2737
2728
2721
2716
2711
2705
2699
2693
2684
2674
2663
2650
2636
2620
2599
2573
2543
2515
2493
2475
2457
2444
2430
2418
2405
2391
2377
2358
2338
2319
2299
2279
2258
2238
2222
2206
2189
2172
2156
2140
2123
2108
2093
2082
2068
2054
2037
2024
2011
1999
1990
1981
1974
1963
1955
1945
1939
1930
1924
1916
1907
1899
1891
1885
1879
1873
1864
1858
1852
1845
1844
1844
1848
1855
1860
1862
1863
1862
1861
1860
1860
1861
1865
1865
1864
1860
1858
1854
1849
1842
1837
1835
1836
1838
1842
1845
1849
1851
1853
1855
1853
1851
1850
1847
1845
1850
1858
1865
1868
1871
1871
1870
1868
1866
1865
1863
1861
1858
1856
1853
1849
1845
1843
1843
1844
1845
1845
1848
1851
1855
1858
1861
1865
1870
1878
1885
1890
1892
1891
1891
1890
1887
1883
1879
1874
1871
1873
1875
1878
1880
1881
1882
1882
1880
1879
1879
1881
1882
1882
1883
1884
1884
1887
1892
1897
1903
1909
1911
1915
1912
1909
1905
1901
1901
1905
1908
1911
1911
1909
1910
1907
1904
1900
1900
1903
1908
1913
1919
1927
1929
1931
1932
1932
1932
1933
1935
1936
1937
1938
1937
1932
1924
1914
1907
1903
1901
1903
1908
1911
1915
1919
1924
1925
1924
1922
1921
1918
1917
1916
1916
1915
1912
1908
1904
1899
1894
1892
1887
1887
1888
1895
1904
1911
1916
1922
1928
1928
1924
1919
1919
1917
1914
1913
1912
1914
1917
1918
1921
1919
1917
1917
1918
1917
1917
1916
1918
1919
1918
1916
1914
1913
1910
1907
1904
1899
1891
1888
1890
1893
1899
1905
1915
1924
1931
1936
1941
1943
1943
1938
1935
1931
1924
1916
1910
1905
1901
1898
1899
1898
1899
1900
1903
1906
1908
1909
1911
1912
1912
1911
1912
1914
1914
1915
1913
1910
1908
1908
1909
1911
1912
1918
1922
1925
1926
1929
1927
1927
1928
1933
1937
1942
1946
1950
1953
1953
1951
1949
1947
1946
1944
1940
1935
1930
1926
1921
1919
1923
1930
1938
1949
1955
1958
1960
1963
1962
1959
1957
1956
1957
1957
1957
1954
1950
1946
1943
1942
1943
1943
1942
1942
1940
1938
1936
1934
1931
1932
1932
1936
1938
1940
1945
1950
1955
1961
1969
1974
1980
1980
1979
1975
1970
1963
1956
1951
1944
1937
1932
1932
1934
1937
1939
1942
1943
1943
1946
1953
1959
1965
1968
1971
1976
1977
1978
1976
1975
1972
1968
1968
1967
1965
1966
1967
1963
1959
1961
1963
1966
1967
1967
1966
1964
1956
1950
1947
1949
1957
1967
1975
1980
1980
1979
1979
1978
1977
1976
1975
1973
1967
1967
1966
1966
1967
1970
1972
1974
1972
1969
1969
1968
1966
1967
1971
1977
1980
1981
1981
1978
1974
1969
1967
1967
1965
1957
1953
1953
1957
1961
1970
1977
1985
1992
1999
2005
2007
2010
2010
2007
2006
2007
2007
2004
1998
1992
1985
1980
1975
1975
1978
1983
1989
1994
2000
2005
2008
2013
2017
2021
2028
2035
2040
2045
2050
2054
2064
2071
2077
2080
2084
2086
2085
2087
2088
2089
2091
2092
2094
2098
2101
2105
2112
2121
2128
2140
2156
2172
2191
2213
2236
2257
2275
2287
2293
2298
2298
2293
2285
2272
2255
2241
2228
2216
2204
2186
2172
2157
2151
2144
2141
2136
2131
2126
2122
2117
2113
2113
2113
2115
2114
2112
2110
2108
2105
2102
2099
2095
2091
2087
2085
2081
2076
2071
2068
2066
2065
2061
2056
2046
2034
2021
2009
1997
1986
1975
1967
1959
1955
1954
1954
1952
1953
1954
1956
1959
1959
1957
1955
1954
1955
1956
1958
1955
1947
1940
1939
1936
1933
1933
1937
1944
1950
1957
1965
1974
1979
1978
1976
1975
1975
1976
1979
1981
1983
1981
1978
1973
1965
1958
1955
1954
1957
1961
1964
1965
1972
1978
1988
1997
2011
2030
2059
2094
2134
2176
2218
2260
2300
2340
2379
2415
2445
2468
2481
2485
2482
2469
2447
2411
2362
2304
2241
2178
2109
2035
1956
1868
1773
1671
1564
1450
1334
1222
1125
1046
990
962
961
982
1021
1073
1137
1206
1283
1366
1457
1548
1635
1720
1801
1868
1927
1978
2020
2052
2073
2086
2090
2083
2065
2048
2031
2020
2012
2008
2004
1999
1995
1993
1992
1995
1996
2002
2008
2014
2022
2025
2030
2032
2031
2025
2020
2015
2012
2009
2007
2005
2007
2011
2019
2026
2036
2049
2058
2065
2066
2065
2062
2058
2048
2042
2038
2035
2034
2038
2043
2044
2044
2046
2046
2046
2049
2053
2061
2070
2077
2082
2085
2081
2078
2075
2071
2068
2064
2063
2066
2071
2073
2080
2086
2092
2097
2101
2105
2107
2107
2108
2107
2106
2107
2104
2101
2100
2100
2103
2107
2109
2112
2110
2112
2114
2116
2118
2120
2122
2123
2126
2128
2129
2134
2141
2148
2151
2154
2157
2160
2162
2162
2158
2155
2153
2152
2153
2155
2156
2159
2161
2162
2164
2164
2164
2167
2171
2174
2176
2181
2185
2188
2192
2199
2206
2215
2221
2229
2234
2237
2239
2239
2237
2237
2239
2240
2241
2238
2236
2237
2241
2247
2254
2263
2272
2278
2281
2285
2289
2294
2301
2307
2311
2310
2307
2305
2305
2308
2313
2324
2334
2348
2364
2378
2389
2397
2400
2403
2404
2405
2408
2414
2420
2429
2437
2448
2455
2462
2468
2473
2477
2479
2481
2490
2494
2514
2527
2541
2555
2569
2582
2596
2610
2621
2631
2636
2638
2637
2634
2632
2633
2635
2637
2643
2647
2653
2663
2676
2688
2702
2711
2717
2721
2727
2736
2746
2756
2762
2765
2767
2769
2771
2772
2773
2775
2775
2772
2770
2768
2762
2757
2753
2750
2745
2740
2740
2738
2736
2730
2721
2709
2696
2684
2671
2658
2645
2634
2621
2604
2589
2569
2547
2523
2502
2482
2461
2440
2417
2395
2372
2349
2326
2305
2287
2269
2253
2237
2222
2204
2185
2166
2148
2132
2116
2101
2085
2067
2043
2023
2001
1981
1966
1954
1947
1942
1939
1937
1934
1934
1931
1925
1919
1910
1901
1890
1879
1869
1856
1847
1840
1838
1843
1851
1866
1878
1886
1892
1893
1891
1886
1882
1875
1869
1862
1859
1856
1851
1847
1843
1841
1837
1833
1832
1832
1830
1831
1833
1835
1837
1838
1840
1841
1843
1843
1841
1840
1836
1832
1829
1830
1831
1833
1836
1839
1838
1838
1839
1841
1842
1841
1839
1837
1836
1836
1838
1842
1847
1849
1851
1852
1853
1852
1850
1850
1846
1846
1848
1850
1852
1855
1860
1865
1868
1870
1868
1867
1867
1867
1868
1869
1867
1866
1864
1864
1861
1857
1855
1858
1861
1867
1872
1879
1881
1881
1879
1877
1873
1873
1873
1878
1878
1877
1876
1876
1874
1874
1880
1883
1889
1893
1899
1905
1908
1909
1908
1905
1902
1899
1898
1897
1896
1897
1897
1897
1896
1893
1891
1891
1891
1888
1883
1881
1881
1882
1882
1882
1880
1879
1875
1876
1877
1877
1877
1877
1878
1881
1884
1889
1892
1895
1897
1898
1898
1894
1890
1888
1887
1885
1884
1884
1882
1881
1879
1879
1878
1877
1877
1881
1884
1892
1898
1902
1903
1903
1897
1891
1882
1871
1863
1860
1862
1868
1872
1875
1876
1878
1882
1889
1893
1897
1899
1904
1908
1909
1912
1912
1911
1908
1903
1899
1895
1891
1886
1879
1876
1876
1874
1871
1865
1863
1862
1865
1869
1873
1875
1876
1875
1873
1874
1878
1886
1892
1901
1907
1912
1916
1917
1917
1915
1913
1910
1909
1909
1905
1904
1904
1903
1899
1895
1889
1885
1884
1887
1890
1892
1894
1896
1898
1901
1903
1902
1902
1903
1903
1905
1907
1908
1909
1909
1913
1914
1915
1916
1915
1913
1910
1908
1906
1903
1899
1898
1900
1900
1903
1905
1906
1906
1904
1902
1899
1897
1897
1898
1902
1903
1903
1906
1911
1915
1919
1923
1925
1922
1921
1917
1914
1913
1910
1911
1911
1913
1914
1919
1926
1935
1941
1942
1941
1939
1935
1932
1926
1924
1922
1925
1929
1933
1935
1936
1938
1941
1941
1934
1927
1927
1926
1931
1935
1936
1935
1934
1935
1936
1937
1940
1946
1951
1952
1952
1951
1953
1951
1948
1945
1940
1935
1933
1932
1931
1930
1931
1929
1929
1929
1930
1930
1931
1930
1932
1933
1932
1930
1932
1935
1939
1939
1939
1938
1935
1932
1932
1934
1935
1935
1933
1937
1941
1947
1953
1957
1959
1961
1961
1962
1965
1962
1961
1961
1961
1959
1960
1964
1967
1967
1967
1965
1961
1955
1946
1939
1933
1930
1932
1933
1937
1942
1948
1953
1958
1961
1961
1962
1959
1956
1951
1947
1944
1943
1944
1949
1951
1952
1957
1960
1966
1968
1972
1976
1977
1978
1978
1978
1974
1973
1971
1971
1970
1970
1966
1964
1963
1965
1969
1975
1982
1985
1985
1982
1977
1969
1964
1964
1963
1967
1975
1982
1989
1993
1997
1999
2000
2003
2004
2008
2012
2014
2014
2019
2025
2031
2037
2046
2053
2060
2071
2084
2091
2095
2094
2090
2084
2080
2077
2077
2079
2083
2091
2103
2115
2128
2148
2173
2200
2226
2250
2271
2289
2304
2315
2320
2316
2308
2297
2284
2268
2250
2233
2215
2197
2176
2154
2133
2114
2102
2097
2097
2100
2102
2107
2110
2112
2108
2102
2095
2092
2094
2098
2101
2100
2096
2092
2088
2085
2079
2075
2069
2064
2060
2059
2054
2047
2039
2031
2027
2021
2018
2015
2007
1994
1979
1964
1950
1937
1925
1917
1916
1917
1919
1922
1925
1926
1929
1929
1931
1934
1935
1937
1937
1936
1936
1938
1943
1946
1949
1948
1946
1945
1943
1944
1947
1947
1948
1947
1947
1947
1944
1943
1941
1939
1935
1928
1924
1923
1915
1919
1921
1921
1924
1929
1939
1948
1958
1971
1988
2009
2041
2077
2113
2150
2195
2244
2294
2344
2391
2434
2467
2486
2494
2495
2490
2480
2459
2425
2380
2325
2262
2198
2132
2064
1988
1905
1814
1717
1612
1497
1374
1248
1131
1032
961
921
910
928
970
1028
1095
1165
1241
1322
1404
1490
1574
1657
1732
1797
1857
1909
1951
1986
2013
2027
2034
2035
2030
2019
2006
1990
1977
1964
1955
1951
1949
1950
1953
1960
1970
1981
1990
2000
2006
2013
2018
2019
2019
2017
2015
2015
2015
2018
2020
2022
2027
2030
2032
2032
2031
2025
2020
2015
2017
2019
2023
2026
2031
2039
2042
2050
2057
2057
2056
2054
2055
2054
2054
2056
2061
2064
2069
2072
2073
2073
2071
2068
2066
2066
2069
2072
2074
2076
2078
2080
2083
2085
2083
2080
2078
2075
2075
2075
2074
2076
2077
2082
2088
2096
2102
2108
2113
2117
2119
2122
2124
2121
2116
2112
2108
2105
2103
2102
2106
2108
2112
2114
2120
2125
2130
2138
2146
2151
2154
2159
2161
2160
2157
2154
2151
2145
2139
2135
2135
2139
2140
2145
2156
2165
2176
2187
2196
2202
2205
2208
2210
2210
2208
2203
2204
2208
2212
2218
2224
2226
2226
2226
2229
2228
2227
2226
2227
2228
2230
2234
2241
2248
2254
2261
2272
2282
2291
2298
2306
2308
2310
2311
2312
2314
2317
2319
2320
2322
2327
2332
2343
2354
2364
2374
2387
2398
2405
2410
2414
2420
2428
2438
2448
2461
2473
2483
2495
2505
2510
2514
2517
2521
2526
2533
2545
2556
2562
2567
2571
2576
2582
2590
2597
2606
2616
2628
2643
2656
2666
2672
2676
2675
2673
2676
2685
2693
2703
2712
2720
2727
2732
2738
2742
2744
2746
2749
2754
2759
2763
2767
2771
2772
2775
2778
2780
2783
2782
2781
2783
2785
2787
2789
2788
2784
2777
2768
2758
2745
2734
2724
2716
2706
2697
2686
2676
2665
2652
2638
2623
2605
2586
2566
2546
2527
2510
2492
2476
2459
2440
2419
2400
2379
2357
2334
2310
2288
2266
2246
2225
2205
2186
2169
2152
2135
2119
2102
2089
2078
2068
2062
2057
2055
2049
2044
2036
2025
2012
2000
1986
1968
1947
1929
1918
1913
1912
1911
1911
1910
1909
1909
1910
1911
1911
1912
1913
1913
1913
1912
1909
1903
1893
1886
1878
1867
1859
1850
1847
1843
1844
1845
1847
1846
1847
1853
1860
1866
1870
1872
1872
1871
1872
1874
1877
1880
1886
1892
1898
1901
1902
1901
1899
1897
1892
1885
1877
1870
1864
1859
1859
1859
1858
1856
1858
1860
1860
1865
1872
1879
1887
1895
1902
1908
1911
1915
1918
1922
1921
1916
1912
1907
1899
1891
1885
1885
1887
1891
1895
1901
1903
1906
1907
1907
1906
1905
1906
1904
1902
1904
1906
1910
1912
1914
1915
1914
1911
1913
1918
1919
1917
1915
1916
1919
1922
1925
1928
1931
1932
1934
1937
1940
1942
1945
1945
1945
1945
1943
1941
1936
1931
1936
1932
1933
1933
1930
1928
1927
1928
1928
1930
1929
1925
1922
1923
1922
1921
1921
1923
1928
1933
1936
1935
1932
1930
1931
1930
1927
1923
1922
1922
1922
1923
1923
1921
1923
1927
1932
1931
1930
1925
1921
1919
1918
1919
1919
1921
1919
1919
1917
1917
1915
1915
1914
1915
1917
1919
1921
1922
1923
1921
1919
1919
1922
1925
1926
1925
1921
1919
1917
1917
1919
1919
1919
1921
1924
1925
1925
1928
1931
1931
1933
1933
1931
1925
1922
1922
1924
1929
1933
1937
1939
1942
1941
1943
1945
1948
1949
1951
1951
1945
1942
1942
1943
1945
1945
1945
1942
1941
1938
1934
1930
1930
1931
1930
1931
1928
1928
1928
1930
1934
1935
1935
1937
1937
1940
1940
1938
1935
1930
1927
1923
1921
1918
1915
1915
1917
1921
1929
1937
1943
1947
1952
1954
1953
1952
1953
1951
1946
1942
1938
1929
1921
1918
1918
1921
1927
1933
1943
1952
1959
1964
1969
1969
1966
1963
1961
1961
1962
1962
1961
1959
1955
1951
1949
1948
1949
1950
1951
1949
1946
1943
1943
1943
1945
1944
1945
1947
1952
1960
1968
1973
1974
1973
1969
1959
1951
1945
1944
1946
1949
1953
1957
1957
1956
1954
1954
1953
1955
1956
1959
1961
1961
1961
1967
1977
1989
1996
2003
2005
2006
2007
2010
2011
2007
2001
1995
1988
1978
1969
1960
1956
1952
1950
1950
1953
1960
1968
1977
1982
1983
1983
1987
1989
1993
1999
2005
2010
2013
2014
2013
2007
2000
1994
1989
1986
1983
1983
1978
1974
1973
1974
1977
1980
1983
1988
1994
1996
1997
1997
1999
1998
1998
1999
2001
2001
1999
1997
1992
1989
1984
1982
1983
1983
1983
1987
1989
1990
1989
1988
1989
1989
1991
1992
1993
1995
1998
1999
2002
2003
2004
2005
2010
2014
2017
2017
2018
2019
2020
2021
2020
2020
2018
2016
2014
2008
2005
2005
2005
2005
2002
1999
2001
2004
2006
2008
2010
2013
2019
2023
2031
2037
2043
2051
2056
2060
2060
2058
2056
2057
2057
2061
2065
2068
2074
2080
2086
2090
2093
2096
2100
2105
2110
2117
2123
2125
2127
2131
2137
2143
2151
2162
2174
2188
2204
2218
2246
2256
2273
2288
2301
2313
2317
2320
2317
2312
2304
2292
2280
2265
2248
2231
2214
2198
2184
2169
2156
2145
2138
2136
2137
2138
2141
2143
2145
2141
2136
2132
2129
2129
2127
2126
2127
2128
2125
2125
2129
2134
2137
2136
2132
2123
2109
2090
2073
2052
2031
2011
1997
1980
1965
1958
1954
1955
1955
1953
1955
1961
1968
1976
1982
1987
1988
1991
1997
1999
1999
1997
1996
1995
1992
1990
1990
1989
1988
1988
1990
1992
1992
1986
1983
1983
1979
1977
1975
1976
1980
1983
1989
1990
1988
1986
1988
1989
1989
1988
1987
1986
1986
1988
1990
1994
1999
2008
2020
2034
2049
2069
2094
2124
2158
2194
2232
2269
2306
2340
2372
2402
2426
2444
2458
2464
2467
2462
2450
2428
2396
2353
2310
2257
2193
2121
2041
1955
1856
1750
1638
1520
1395
1274
1164
1071
1000
956
941
953
989
1044
1114
1195
1280
1365
1453
1544
1631
1714
1792
1863
1927
1981
2028
2066
2098
2123
2139
2145
2141
2128
2110
2091
2073
2057
2039
2027
2015
2008
2005
2005
2009
2017
2027
2035
2043
2050
2056
2059
2062
2065
2067
2068
2063
2060
2055
2046
2040
2035
2034
2036
2039
2043
2049
2057
2063
2068
2073
2076
2077
2078
2082
2082
2084
2085
2084
2081
2077
2074
2074
2072
2076
2076
2080
2082
2085
2086
2087
2084
2077
2073
2070
2069
2070
2074
2083
2093
2102
2109
2114
2116
2114
2114
2117
2118
2117
2115
2112
2110
2112
2114
2121
2128
2134
2140
2147
2153
2157
2158
2156
2153
2147
2141
2139
2136
2133
2129
2129
2130
2132
2134
2137
2139
2141
2142
2145
2146
2149
2156
2164
2171
2178
2186
2192
2194
2193
2188
2182
2178
2176
2176
2178
2181
2184
2187
2189
2194
2199
2206
2215
2222
2228
2235
2240
2243
2245
2246
2249
2247
2242
2239
2239
2238
2237
2237
2243
2248
2254
2261
2270
2277
2286
2294
2302
2306
2309
2311
2310
2309
2310
2313
2318
2326
2331
2339
2345
2352
2360
2364
2366
2367
2370
2373
2382
2393
2403
2412
2417
2421
2424
2431
2439
2448
2460
2469
2479
2487
2493
2497
2502
2508
2516
2524
2535
2546
2555
2564
2574
2583
2589
2596
2603
2609
2616
2624
2631
2638
2642
2647
2654
2658
2658
2657
2660
2667
2673
2679
2690
2697
2704
2712
2721
2725
2728
2732
2735
2737
2743
2749
2753
2756
2758
2759
2758
2758
2750
2741
2732
2719
2722
2723
2725
2722
2719
2716
2710
2702
2692
2676
2663
2651
2637
2624
2611
2596
2581
2565
2550
2533
2516
2497
2476
2453
2428
2403
2379
2357
2334
2314
2296
2277
2257
2239
2222
2206
2190
2180
2168
2155
2139
2119
2101
2084
2068
2055
2041
2028
2014
2002
1988
1975
1959
1944
1936
1931
1926
1921
1914
1906
1899
1894
1891
1888
1887
1885
1886
1883
1883
1882
1880
1878
1877
1873
1869
1865
1859
1854
1848
1845
1842
1839
1835
1827
1820
1820
1824
1829
1833
1836
1843
1850
1858
1866
1872
1874
1874
1873
1874
1871
1864
1855
1847
1840
1835
1833
1832
1831
1830
1831
1832
1832
1831
1830
1831
1832
1836
1839
1846
1853
1859
1864
1864
1860
1858
1855
1854
1855
1855
1857
1857
1858
1858
1855
1852
1850
1848
1849
1854
1859
1864
1867
1871
1871
1870
1868
1858
1865
1860
1856
1857
1857
1859
1858
1858
1856
1857
1861
1869
1876
1883
1887
1892
1893
1895
1893
1891
1894
1899
1903
1903
1899
1891
1882
1877
1875
1877
1880
1881
1885
1886
1890
1891
1888
1884
1882
1882
1883
1885
1892
1899
1900
1900
1898
1896
1892
1887
1882
1879
1874
1872
1871
1871
1873
1876
1880
1883
1885
1881
1880
1881
1881
1882
1883
1885
1887
1887
1887
1886
1887
1884
1884
1886
1888
1888
1888
1889
1889
1888
1886
1884
1882
1878
1870
1861
1853
1848
1847
1853
1858
1865
1875
1886
1896
1906
1908
1909
1906
1903
1903
1902
1903
1900
1898
1895
1891
1889
1885
1883
1883
1884
1885
1888
1889
1889
1890
1892
1891
1889
1888
1886
1885
1882
1880
1877
1872
1869
1866
1866
1864
1866
1869
1873
1880
1885
1892
1897
1905
1912
1916
1917
1917
1913
1911
1907
1905
1901
1897
1896
1894
1894
1894
1894
1894
1892
1891
1891
1891
1890
1889
1886
1885
1887
1889
1893
1899
1908
1915
1919
1919
1919
1919
1918
1913
1910
1909
1909
1908
1909
1909
1909
1908
1906
1903
1902
1901
1901
1901
1900
1900
1899
1900
1903
1908
1910
1914
1919
1922
1925
1925
1926
1919
1918
1916
1914
1913
1913
1917
1923
1930
1935
1935
1933
1928
1926
1925
1924
1921
1923
1924
1926
1925
1923
1919
1913
1907
1904
1903
1903
1903
1902
1904
1906
1904
1902
1901
1902
1906
1913
1924
1934
1943
1950
1954
1956
1955
1951
1947
1942
1939
1933
1926
1923
1919
1917
1918
1924
1928
1929
1930
1932
1932
1932
1930
1928
1925
1921
1918
1919
1917
1918
1919
1925
1929
1934
1937
1937
1932
1928
1926
1929
1934
1940
1947
1952
1954
1953
1950
1945
1940
1933
1931
1930
1932
1933
1935
1935
1935
1939
1943
1946
1947
1947
1946
1946
1946
1945
1946
1949
1955
1959
1960
1960
1960
1958
1959
1959
1959
1962
1966
1976
1983
1989
1995
2001
2007
2010
2013
2015
2019
2020
2022
2023
2023
2022
2021
2023
2027
2031
2039
2052
2066
2084
2104
2129
2154
2179
2200
2216
2228
2234
2237
2237
2235
2232
2231
2229
2221
2208
2188
2170
2152
2135
2119
2106
2095
2086
2080
2078
2078
2080
2084
2088
2088
2085
2080
2080
2080
2077
2073
2070
2069
2064
2060
2058
2053
2047
2042
2040
2039
2039
2039
2040
2038
2032
2023
2011
1997
1983
1969
1956
1941
1927
1916
1911
1907
1906
1906
1909
1913
1918
1921
1929
1938
1946
1951
1957
1960
1961
1962
1962
1961
1955
1949
1943
1939
1936
1933
1934
1935
1936
1939
1942
1946
1948
1948
1951
1951
1947
1941
1934
1926
1918
1911
1906
1901
1902
1908
1916
1924
1932
1941
1953
1968
1981
1998
2015
2030
2050
2071
2098
2129
2162
2197
2237
2280
2322
2360
2394
2419
2434
2441
2445
2445
2438
2422
2398
2358
2307
2250
2190
2121
2042
1950
1847
1735
1618
1496
1371
1254
1151
1068
1006
973
967
987
1031
1090
1162
1239
1323
1410
1495
1581
1665
1745
1818
1883
1938
1983
2019
2045
2064
2073
2073
2069
2060
2047
2030
2015
2000
1986
1972
1964
1953
1947
1947
1949
1955
1960
1966
1973
1981
1990
1998
2005
2009
2009
2008
2005
2001
1996
1991
1989
1994
1998
2001
2002
2003
2005
2007
2009
2009
2009
2010
2011
2011
2011
2010
2010
2011
2015
2018
2022
2024
2023
2021
2020
2020
2019
2022
2028
2036
2041
2049
2055
2059
2060
2061
2060
2061
2059
2060
2060
2057
2054
2046
2042
2040
2040
2040
2041
2043
2045
2047
2052
2056
2062
2066
2068
2068
2070
2072
2074
2076
2075
2075
2075
2075
2072
2072
2075
2081
2088
2095
2104
2111
2113
2112
2112
2110
2109
2106
2103
2099
2096
2094
2097
2104
2115
2126
2134
2140
2139
2133
2129
2125
2124
2124
2125
2129
2131
2135
2140
2147
2153
2159
2168
2177
2184
2188
2189
2192
2194
2198
2205
2212
2216
2218
2209
2218
2217
2214
2209
2204
2200
2198
2199
2207
2216
2224
2234
2245
2257
2266
2275
2281
2285
2286
2287
2286
2284
2283
2281
2281
2282
2287
2294
2305
2313
2323
2332
2341
2349
2358
2369
2381
2390
2399
2409
2419
2427
2433
2438
2445
2453
2463
2474
2486
2497
2507
2515
2522
2529
2536
2546
2556
2564
2569
2574
2578
2581
2584
2586
2589
2589
2592
2599
2612
2624
2635
2642
2652
2660
2668
2675
2682
2689
2696
2704
2710
2713
2712
2712
2713
2714
2712
2712
2710
2710
2709
2706
2706
2706
2706
2703
2701
2696
2690
2681
2672
2661
2649
2638
2628
2613
2593
2574
2553
2533
2516
2502
2490
2474
2459
2445
2431
2413
2396
2376
2355
2334
2312
2293
2274
2256
2234
2212
2194
2175
2158
2143
2130
2116
2104
2093
2082
2070
2055
2039
2023
2005
1990
1972
1957
1943
1936
1928
1923
1919
1916
1914
1915
1914
1914
1913
1912
1910
1905
1900
1893
1886
1883
1879
1874
1867
1859
1853
1850
1845
1839
1834
1834
1833
1836
1840
1847
1853
1854
1854
1851
1844
1835
1824
1815
1811
1810
1811
1816
1821
1826
1833
1836
1837
1839
1842
1845
1846
1846
1845
1844
1841
1838
1837
1837
1836
1834
1836
1837
1840
1840
1841
1844
1847
1849
1847
1846
1845
1845
1846
1849
1852
1855
1858
1862
1863
1862
1859
1858
1861
1866
1871
1877
1881
1881
1881
1879
1875
1870
1866
1864
1864
1864
1864
1865
1865
1863
1857
1852
1851
1852
1858
1865
1875
1886
1892
1891
1890
1889
1888
1888
1887
1885
1882
1879
1879
1878
1879
1884
1891
1895
1899
1902
1905
1905
1904
1906
1905
1903
1902
1901
1901
1902
1905
1908
1911
1909
1903
1896
1890
1887
1885
1887
1888
1891
1893
1899
1900
1903
1905
1905
1901
1896
1893
1891
1889
1888
1889
1891
1892
1893
1896
1898
1899
1901
1905
1907
1903
1901
1899
1898
1893
1888
1885
1885
1885
1882
1881
1879
1878
1878
1881
1884
1885
1886
1888
1889
1890
1892
1895
1898
1901
1901
1903
1905
1904
1901
1897
1892
1886
1882
1881
1883
1887
1891
1893
1894
1897
1899
1902
1906
1907
1909
1914
1919
1923
1925
1925
1927
1930
1933
1935
1934
1933
1928
1921
1916
1915
1914
1914
1913
1907
1900
1897
1893
1892
1892
1893
1895
1895
1895
1895
1896
1900
1903
1908
1913
1915
1916
1917
1916
1915
1919
1922
1923
1919
1917
1916
1922
1927
1930
1934
1937
1937
1936
1934
1932
1929
1927
1926
1925
1923
1919
1918
1916
1912
1908
1903
1900
1900
1901
1907
1915
1923
1929
1937
1943
1948
1952
1951
1950
1946
1942
1939
1935
1933
1932
1933
1933
1935
1935
1937
1940
1943
1947
1949
1949
1947
1944
1942
1941
1942
1945
1949
1952
1955
1953
1950
1946
1942
1939
1938
1940
1946
1951
1956
1959
1958
1958
1958
1959
1957
1954
1951
1951
1950
1948
1949
1953
1956
1959
1964
1969
1973
1974
1972
1972
1966
1958
1949
1945
1942
1940
1940
1941
1941
1940
1940
1941
1943
1945
1946
1950
1954
1959
1964
1970
1975
1981
1983
1987
1986
1984
1980
1977
1971
1968
1964
1961
1958
1956
1955
1957
1958
1960
1963
1967
1971
1976
1978
1980
1982
1983
1982
1979
1976
1970
1969
1966
1963
1963
1962
1963
1962
1961
1962
1962
1961
1958
1959
1963
1968
1968
1968
1973
1980
1993
2002
2010
2014
2015
2014
2010
2005
1997
1988
1981
1973
1967
1962
1960
1961
1963
1965
1963
1964
1965
1968
1975
1982
1989
1996
2001
2002
2002
2002
2006
2010
2014
2015
2016
2013
2007
2003
1996
1989
1982
1979
1978
1979
1981
1980
1981
1985
1983
1981
1982
1983
1983
1983
1983
1990
1997
2001
2006
2010
2012
2011
2010
2007
2006
2005
2003
2001
1999
1998
1999
2001
2003
2007
2008
2010
2012
2015
2019
2024
2028
2030
2033
2033
2033
2032
2035
2039
2040
2044
2049
2054
2059
2062
2062
2061
2060
2060
2060
2058
2060
2063
2066
2072
2076
2078
2081
2087
2094
2105
2121
2136
2154
2172
2190
2205
2221
2239
2257
2273
2286
2292
2296
2294
2285
2272
2256
2237
2220
2204
2189
2175
2159
2146
2135
2127
2121
2116
2116
2117
2120
2122
2125
2126
2124
2122
2121
2118
2117
2115
2113
2111
2110
2109
2108
2107
2102
2096
2093
2087
2081
2072
2064
2053
2041
2029
2021
2012
2004
1998
1992
1988
1982
1977
1971
1966
1959
1951
1945
1939
1937
1941
1947
1954
1957
1960
1962
1961
1961
1960
1959
1959
1960
1962
1969
1977
1989
1996
1998
1998
1996
1992
1986
1981
1979
1980
1982
1983
1983
1983
1981
1978
1972
1964
1958
1955
1952
1952
1953
1957
1957
1961
1969
1979
1991
2007
2026
2049
2077
2112
2154
2200
2246
2296
2347
2395
2438
2478
2509
2532
2545
2550
2549
2542
2529
2507
2477
2439
2392
2336
2269
2193
2108
2014
1913
1806
1693
1573
1451
1326
1233
1152
1096
1066
1061
1082
1123
1178
1247
1322
1403
1486
1568
1646
1723
1791
1852
1904
1949
1985
2016
2041
2059
2065
2064
2062
2056
2050
2041
2030
2017
2005
1991
1977
1962
1951
1947
1946
1952
1959
1969
1977
1988
1998
2007
2015
2019
2022
2023
2024
2025
2027
2029
2029
2028
2027
2023
2020
2017
2015
2015
2019
2021
2023
2022
2022
2025
2028
2031
2036
2041
2045
2050
2052
2053
2054
2056
2058
2061
2063
2064
2064
2063
2064
2068
2071
2073
2072
2070
2067
2065
2066
2069
2072
2073
2074
2072
2072
2070
2070
2066
2064
2064
2064
2065
2069
2072
2074
2076
2078
2080
2084
2087
2093
2100
2105
2108
2110
2112
2108
2103
2103
2107
2112
2112
2112
2112
2112
2115
2116
2118
2120
2121
2123
2126
2129
2129
2129
2127
2124
2117
2115
2118
2123
2129
2135
2142
2149
2155
2160
2162
2166
2168
2172
2178
2181
2184
2188
2189
2192
2196
2199
2204
2208
2212
2213
2214
2213
2213
2214
2219
2224
2225
2227
2231
2235
2237
2239
2242
2246
2248
2250
2255
2262
2270
2282
2293
2304
2312
2319
2326
2330
2333
2332
2334
2336
2338
2342
2349
2354
2360
2364
2368
2370
2372
2376
2387
2398
2412
2423
2436
2445
2455
2460
2464
2469
2476
2482
2487
2493
2496
2504
2508
2513
2520
2527
2537
2547
2559
2572
2584
2594
2604
2613
2621
2631
2639
2647
2653
2658
2660
2663
2666
2668
2672
2677
2685
2696
2704
2713
2720
2724
2727
2730
2732
2732
2731
2730
2731
2729
2727
2726
2726
2727
2727
2726
2726
2726
2723
2718
2711
2707
2704
2700
2696
2689
2679
2666
2653
2640
2624
2607
2591
2573
2554
2535
2517
2500
2482
2462
2443
2423
2405
2386
2368
2348
2327
2309
2290
2270
2247
2221
2195
2168
2147
2129
2113
2097
2084
2074
2070
2068
2065
2061
2054
2041
2027
2017
2008
1999
1987
1975
1964
1952
1939
1926
1915
1903
1893
1887
1885
1882
1879
1876
1875
1873
1874
1873
1874
1874
1872
1870
1870
1869
1868
1867
1863
1860
1856
1853
1852
1847
1846
1845
1843
1843
1842
1844
1847
1852
1856
1858
1860
1857
1854
1853
1853
1850
1849
1846
1845
1841
1840
1842
1846
1849
1850
1853
1853
1849
1847
1844
1841
1837
1836
1836
1839
1842
1846
1848
1849
1850
1849
1849
1853
1860
1866
1868
1872
1876
1877
1876
1875
1872
1868
1864
1862
1860
1860
1862
1867
1872
1878
1881
1884
1884
1885
1886
1886
1887
1886
1887
1887
1885
1882
1879
1877
1878
1878
1880
1883
1886
1887
1889
1889
1887
1884
1883
1883
1885
1887
1888
1890
1892
1894
1897
1900
1903
1905
1907
1909
1912
1916
1919
1924
1924
1924
1922
1921
1919
1912
1903
1897
1894
1892
1893
1896
1898
1898
1898
1900
1901
1905
1907
1908
1907
1905
1907
1907
1909
1907
1905
1897
1889
1881
1877
1875
1874
1872
1869
1870
1874
1880
1888
1896
1904
1910
1915
1917
1919
1922
1927
1933
1935
1933
1931
1928
1926
1923
1924
1923
1919
1917
1916
1915
1912
1908
1906
1903
1904
1903
1903
1903
1899
1896
1893
1890
1891
1892
1895
1897
1899
1898
1897
1895
1900
1899
1903
1906
1909
1909
1909
1910
1912
1913
1913
1911
1910
1908
1907
1905
1906
1906
1906
1909
1909
1909
1906
1902
1895
1886
1882
1881
1884
1886
1888
1894
1900
1907
1911
1916
1919
1923
1924
1922
1919
1914
1911
1909
1908
1904
1902
1903
1906
1910
1915
1918
1919
1919
1916
1914
1912
1911
1912
1914
1918
1921
1925
1930
1932
1932
1930
1928
1928
1926
1927
1926
1926
1926
1930
1936
1943
1948
1951
1953
1953
1953
1951
1950
1946
1943
1939
1937
1935
1929
1924
1921
1924
1926
1927
1929
1928
1927
1927
1931
1937
1944
1951
1956
1959
1961
1963
1965
1967
1962
1957
1951
1946
1943
1937
1931
1925
1919
1918
1919
1921
1924
1923
1923
1923
1925
1927
1930
1931
1933
1935
1936
1938
1941
1951
1959
1965
1968
1968
1967
1963
1955
1948
1940
1937
1939
1941
1945
1950
1954
1957
1958
1955
1953
1949
1945
1942
1940
1941
1943
1946
1949
1953
1952
1949
1942
1937
1934
1929
1928
1932
1939
1944
1947
1950
1952
1949
1946
1944
1947
1950
1955
1959
1960
1960
1957
1956
1959
1960
1963
1964
1965
1966
1965
1967
1971
1972
1973
1973
1971
1968
1964
1961
1959
1954
1948
1942
1941
1942
1945
1950
1956
1962
1965
1966
1972
1973
1973
1974
1976
1975
1976
1977
1974
1965
1956
1948
1944
1946
1949
1958
1967
1975
1977
1979
1982
1982
1980
1976
1973
1971
1970
1971
1972
1972
1975
1977
1982
1986
1989
1990
1991
1989
1986
1981
1975
1970
1963
1961
1965
1969
1975
1982
1990
1998
2005
2007
2008
2007
2002
1996
1990
1983
1976
1971
1971
1972
1974
1976
1980
1983
1985
1989
1994
1996
1998
1999
2004
2005
2007
2008
2009
2008
2006
2005
2003
2001
1997
1993
1990
1988
1985
1981
1979
1979
1979
1983
1987
1989
1991
1992
1992
1989
1989
1992
1998
2000
2000
1998
1999
1999
2000
2001
2000
1999
1999
2001
2006
2010
2009
2007
2009
2014
2020
2028
2036
2041
2045
2049
2054
2060
2066
2072
2077
2080
2084
2086
2087
2086
2084
2084
2082
2082
2082
2087
2096
2107
2128
2152
2179
2206
2232
2255
2273
2287
2295
2299
2301
2301
2294
2284
2270
2254
2234
2215
2195
2174
2156
2142
2131
2122
2116
2114
2114
2117
2121
2124
2129
2128
2124
2120
2117
2114
2113
2114
2113
2112
2110
2108
2109
2107
2103
2098
2092
2087
2082
2076
2069
2059
2047
2036
2021
2007
1996
1991
1985
1979
1972
1967
1964
1962
1960
1958
1959
1961
1961
1963
1963
1962
1961
1962
1968
1978
1988
1996
2003
2008
2008
2005
2001
1996
1992
1988
1987
1987
1987
1988
1987
1985
1982
1980
1975
1971
1969
1970
1975
1978
1979
1981
1981
1975
1969
1962
1956
1954
1952
1949
1947
1949
1957
1968
1980
1992
2002
2017
2036
2061
2096
2137
2185
2236
2287
2339
2387
2429
2468
2498
2521
2538
2545
2548
2549
2545
2532
2508
2470
2419
2360
2294
2221
2138
2045
1951
1849
1744
1635
1521
1407
1304
1215
1146
1104
1084
1088
1113
1153
1207
1270
1343
1424
1507
1590
1673
1754
1826
1890
1948
1994
2027
2049
2061
2066
2064
2057
2043
2028
2009
1993
1981
1973
1967
1966
1967
1973
1978
1983
1988
1991
1993
1999
2003
2011
2017
2020
2021
2023
2025
2025
2025
2023
2021
2017
2015
2015
2016
2017
2021
2027
2032
2036
2037
2038
2040
2042
2044
2045
2045
2047
2049
2050
2046
2046
2048
2051
2053
2056
2059
2059
2063
2064
2066
2067
2068
2068
2065
2061
2059
2059
2060
2062
2062
2060
2060
2062
2064
2067
2070
2076
2081
2087
2090
2092
2095
2096
2100
2104
2104
2106
2109
2114
2117
2115
2114
2114
2115
2116
2118
2119
2120
2123
2122
2125
2126
2125
2125
2126
2128
2131
2136
2145
2151
2153
2154
2153
2150
2144
2142
2141
2141
2143
2147
2150
2155
2160
2165
2169
2172
2176
2180
2185
2189
2194
2199
2201
2201
2203
2205
2205
2204
2201
2197
2196
2195
2198
2204
2210
2217
2224
2231
2240
2247
2252
2258
2261
2264
2268
2271
2276
2282
2287
2291
2295
2300
2303
2304
2308
2313
2317
2320
2325
2326
2330
2336
2345
2350
2358
2362
2359
2366
2367
2372
2379
2387
2394
2402
2411
2420
2431
2441
2452
2457
2464
2470
2473
2476
2483
2494
2509
2522
2535
2545
2556
2564
2570
2576
2581
2587
2593
2600
2609
2615
2622
2633
2646
2657
2666
2674
2682
2689
2695
2701
2709
2711
2713
2712
2715
2714
2711
2709
2709
2709
2708
2708
2711
2717
2723
2729
2736
2740
2743
2745
2745
2745
2744
2742
2741
2738
2733
2726
2716
2708
2700
2691
2682
2674
2666
2657
2648
2638
2626
2612
2595
2577
2556
2535
2517
2500
2484
2469
2453
2436
2409
2377
2345
2319
2297
2284
2274
2266
2255
2243
2230
2217
2206
2191
2177
2164
2145
2125
2109
2098
2086
2077
2068
2059
2049
2035
2024
2010
1995
1981
1971
1962
1956
1954
1953
1948
1944
1938
1931
1922
1909
1900
1894
1886
1877
1868
1862
1858
1854
1851
1849
1848
1849
1852
1859
1865
1869
1871
1872
1873
1875
1875
1875
1871
1869
1866
1866
1866
1868
1867
1865
1860
1853
1846
1845
1844
1843
1841
1839
1836
1837
1842
1851
1856
1862
1863
1863
1861
1861
1863
1865
1867
1868
1870
1870
1868
1864
1861
1859
1860
1865
1868
1879
1882
1885
1889
1891
1890
1885
1880
1879
1877
1875
1873
1873
1870
1869
1871
1871
1873
1877
1882
1887
1890
1893
1890
1887
1884
1884
1885
1890
1892
1893
1896
1896
1898
1900
1903
1904
1907
1907
1908
1908
1907
1905
1903
1901
1898
1894
1895
1897
1898
1902
1908
1913
1916
1917
1916
1916
1912
1909
1907
1907
1915
1922
1929
1936
1940
1941
1943
1945
1947
1947
1949
1950
1951
1949
1944
1941
1934
1930
1927
1922
1916
1910
1911
1913
1913
1916
1916
1919
1923
1925
1922
1919
1919
1919
1922
1924
1924
1923
1928
1932
1933
1936
1938
1936
1931
1928
1925
1926
1929
1929
1930
1935
1939
1940
1941
1940
1937
1931
1927
1926
1927
1928
1928
1927
1927
1926
1926
1925
1928
1929
1930
1931
1930
1927
1924
1919
1913
1907
1905
1908
1913
1917
1919
1919
1917
1916
1915
1919
1925
1927
1932
1935
1938
1938
1941
1941
1938
1938
1938
1938
1934
1933
1933
1934
1931
1928
1928
1931
1933
1936
1938
1939
1939
1945
1951
1956
1958
1956
1952
1948
1941
1935
1931
1930
1932
1932
1936
1940
1943
1946
1948
1951
1950
1950
1951
1954
1955
1949
1945
1941
1937
1935
1936
1939
1942
1944
1945
1947
1948
1950
1952
1955
1959
1961
1963
1964
1964
1962
1960
1958
1958
1958
1954
1953
1950
1949
1951
1955
1956
1957
1958
1962
1964
1965
1965
1967
1968
1969
1970
1973
1974
1971
1966
1959
1950
1941
1935
1935
1938
1942
1947
1954
1959
1961
1963
1964
1964
1964
1962
1960
1958
1954
1951
1949
1948
1948
1949
1950
1952
1956
1961
1961
1954
1951
1946
1943
1941
1942
1944
1947
1950
1954
1960
1967
1971
1972
1976
1981
1988
1993
1998
2000
1999
1995
1991
1985
1981
1977
1974
1973
1969
1967
1965
1965
1965
1966
1969
1972
1974
1977
1981
1987
1989
1986
1981
1979
1977
1975
1972
1970
1967
1967
1972
1979
1987
1993
1996
1999
1997
1995
1993
1992
1990
1988
1986
1985
1987
1986
1986
1987
1988
1989
1988
1987
1982
1976
1975
1977
1981
1985
1988
1990
1990
1985
1977
1975
1979
1985
1991
1996
2000
2001
1997
1995
1993
1991
1994
1995
1995
1992
1990
1989
1986
1983
1986
1992
1997
2003
2004
2004
2001
1998
1996
1996
1995
1994
1997
1998
1997
1997
1996
1996
1997
1999
2001
2002
2001
2000
1999
2001
2001
2002
2005
2005
2006
2002
1998
1994
1993
1990
1989
1987
1987
1987
1990
1994
1997
2001
2005
2009
2014
2018
2021
2024
2025
2030
2031
2031
2027
2020
2017
2015
2015
2014
2011
2011
2009
2009
2007
2008
2008
2010
2014
2017
2018
2014
2009
2009
2009
2012
2017
2023
2030
2036
2041
2048
2052
2054
2056
2055
2055
2056
2057
2062
2068
2076
2083
2091
2096
2101
2104
2105
2104
2103
2100
2097
2096
2094
2097
2103
2112
2124
2139
2159
2179
2197
2214
2231
2246
2260
2269
2276
2281
2282
2279
2271
2258
2243
2226
2206
2186
2172
2161
2152
2145
2140
2137
2134
2133
2130
2130
2130
2129
2126
2126
2127
2127
2125
2126
2123
2117
2108
2101
2095
2091
2089
2087
2091
2093
2097
2096
2092
2084
2075
2066
2056
2041
2025
2015
2004
1994
1982
1970
1963
1956
1954
1953
1956
1958
1959
1961
1965
1967
1970
1973
1978
1983
1988
1994
1999
2000
2001
2000
1998
1996
1995
1993
1994
1996
1997
1998
1999
2000
1999
1996
1994
1993
1992
1993
1993
1990
1990
1991
1990
1989
1988
1988
1987
1985
1983
1983
1983
1988
1994
2006
2021
2038
2058
2075
2099
2130
2164
2201
2240
2280
2321
2359
2396
2429
2459
2484
2500
2509
2509
2499
2481
2449
2411
2369
2319
2259
2188
2112
2026
1931
1828
1722
1611
1494
1379
1271
1178
1103
1052
1030
1037
1070
1121
1188
1264
1344
1428
1510
1593
1670
1739
1804
1866
1926
1980
2028
2067
2096
2115
2127
2129
2121
2108
2092
2080
2064
2048
2031
2017
2005
1995
1990
1987
1988
1987
1988
1991
1996
2001
2009
2015
2022
2029
2038
2045
2050
2054
2057
2059
2059
2055
2054
2053
2052
2052
2050
2050
2045
2041
2038
2037
2034
2033
2032
2033
2038
2042
2046
2052
2057
2061
2065
2070
2076
2080
2085
2089
2092
2090
2085
2080
2074
2070
2066
2064
2065
2069
2072
2073
2070
2068
2067
2068
2070
2073
2080
2088
2095
2100
2105
2103
2100
2096
2094
2092
2090
2089
2084
2080
2077
2077
2079
2083
2087
2091
2098
2108
2117
2125
2132
2137
2140
2141
2141
2140
2139
2140
2141
2142
2142
2141
2140
2141
2141
2141
2145
2146
2148
2149
2151
2153
2155
2156
2157
2159
2159
2156
2158
2160
2161
2161
2164
2169
2173
2178
2181
2186
2190
2194
2197
2199
2204
2212
2222
2232
2241
2248
2253
2258
2257
2257
2254
2251
2248
2243
2241
2246
2255
2265
2276
2285
2292
2295
2298
2297
2294
2292
2292
2295
2297
2300
2306
2314
2322
2326
2330
2339
2351
2366
2382
2398
2411
2420
2425
2430
2431
2434
2441
2449
2454
2457
2461
2461
2463
2465
2467
2470
2473
2477
2484
2491
2496
2506
2516
2527
2538
2548
2558
2565
2572
2578
2585
2595
2603
2611
2614
2618
2622
2627
2631
2637
2643
2648
2653
2659
2666
2670
2672
2676
2683
2692
2700
2704
2706
2707
2704
2705
2705
2704
2704
2707
2704
2702
2699
2695
2689
2684
2680
2674
2662
2647
2633
2620
2609
2601
2593
2589
2580
2567
2552
2536
2517
2495
2472
2448
2425
2406
2388
2368
2347
2329
2312
2299
2285
2270
2253
2235
2217
2197
2177
2160
2145
2130
2115
2104
2093
2083
2073
2061
2049
2031
2018
2007
1997
1987
1978
1971
1964
1958
1953
1949
1945
1940
1934
1931
1928
1923
1917
1913
1908
1902
1899
1895
1894
1890
1884
1878
1868
1862
1859
1858
1857
1856
1854
1853
1856
1858
1858
1856
1854
1854
1852
1852
1853
1852
1853
1857
1861
1868
1874
1881
1882
1881
1878
1877
1875
1871
1868
1867
1868
1871
1871
1871
1870
1869
1867
1865
1861
1857
1855
1856
1859
1862
1868
1874
1880
1882
1881
1879
1873
1866
1863
1862
1864
1868
1872
1875
1877
1879
1882
1883
1882
1882
1885
1893
1898
1902
1902
1905
1907
1906
1906
1907
1905
1903
1901
1901
1902
1903
1904
1906
1905
1907
1905
1905
1904
1901
1899
1901
1903
1904
1903
1901
1899
1902
1905
1908
1910
1913
1915
1916
1915
1915
1915
1917
1919
1924
1928
1931
1934
1933
1931
1928
1924
1919
1919
1919
1921
1920
1919
1917
1913
1908
1902
1899
1899
1901
1903
1908
1909
1903
1899
1895
1896
1895
1897
1898
1896
1895
1892
1891
1890
1890
1892
1891
1891
1894
1895
1898
1899
1898
1900
1903
1907
1908
1910
1912
1913
1915
1918
1921
1924
1922
1917
1913
1906
1901
1895
1892
1887
1886
1887
1886
1885
1884
1884
1883
1881
1882
1885
1890
1894
1897
1900
1903
1902
1901
1898
1896
1895
1894
1895
1898
1901
1903
1907
1911
1914
1915
1915
1915
1913
1909
1908
1905
1903
1903
1908
1916
1919
1919
1917
1914
1910
1907
1906
1905
1901
1898
1896
1893
1893
1891
1893
1897
1902
1909
1918
1927
1934
1941
1945
1947
1946
1941
1937
1937
1936
1934
1933
1934
1932
1929
1925
1923
1918
1916
1915
1916
1921
1926
1930
1935
1938
1940
1943
1946
1949
1951
1952
1951
1948
1944
1941
1941
1937
1935
1932
1930
1927
1925
1924
1928
1927
1925
1924
1925
1925
1926
1928
1931
1933
1936
1938
1940
1941
1939
1938
1937
1938
1940
1942
1943
1942
1940
1941
1943
1945
1947
1948
1952
1956
1956
1957
1959
1957
1955
1947
1955
1953
1951
1950
1947
1945
1942
1946
1949
1955
1957
1957
1956
1955
1953
1949
1942
1934
1928
1926
1927
1930
1932
1935
1937
1944
1953
1962
1970
1973
1975
1973
1969
1963
1956
1953
1951
1951
1950
1955
1958
1962
1966
1973
1976
1980
1981
1982
1986
1983
1978
1974
1975
1975
1975
1974
1975
1973
1969
1969
1969
1967
1965
1963
1962
1962
1961
1962
1961
1958
1958
1960
1966
1973
1979
1983
1985
1980
1972
1963
1957
1948
1942
1940
1941
1945
1948
1953
1960
1966
1970
1973
1974
1977
1980
1985
1990
1992
1992
1989
1986
1980
1975
1971
1969
1971
1973
1976
1978
1979
1980
1983
1992
2003
2010
2014
2016
2017
2017
2019
2023
2031
2040
2049
2054
2055
2053
2052
2050
2049
2050
2052
2058
2064
2074
2089
2105
2123
2144
2163
2184
2201
2215
2228
2239
2245
2246
2241
2233
2220
2208
2196
2183
2167
2149
2132
2120
2106
2093
2082
2075
2073
2073
2075
2080
2081
2082
2084
2087
2090
2093
2096
2097
2098
2095
2091
2085
2079
2071
2063
2053
2046
2039
2035
2032
2031
2027
2022
2017
2010
2004
2000
1995
1991
1987
1981
1975
1966
1955
1944
1936
1928
1921
1917
1915
1918
1921
1924
1927
1933
1940
1949
1956
1962
1966
1969
1972
1971
1967
1961
1956
1953
1946
1941
1937
1939
1940
1944
1950
1953
1955
1955
1950
1945
1939
1936
1936
1936
1937
1938
1940
1941
1943
1945
1946
1945
1944
1949
1959
1970
1986
2006
2034
2069
2109
2157
2208
2260
2310
2359
2404
2440
2468
2487
2500
2506
2508
2508
2501
2481
2450
2411
2363
2308
2245
2172
2094
2006
1910
1810
1701
1590
1481
1383
1302
1242
1205
1192
1197
1221
1256
1304
1365
1433
1499
1568
1641
1713
1780
1842
1899
1948
1989
2021
2044
2060
2068
2073
2076
2075
2069
2056
2037
2018
1998
1985
1970
1961
1955
1952
1953
1957
1963
1968
1971
1971
1970
1971
1973
1975
1978
1983
1989
1994
1998
2002
2001
1997
1990
1988
1985
1983
1984
1985
1985
1985
1983
1983
1985
1988
1989
1990
1993
1995
1996
1996
1998
2001
2000
2001
2003
2004
2005
2007
2010
2012
2013
2015
2018
2020
2020
2022
2023
2021
2020
2018
2019
2019
2022
2027
2033
2035
2036
2038
2041
2044
2047
2052
2056
2057
2057
2054
2053
2049
2047
2045
2043
2039
2036
2035
2037
2038
2040
2044
2051
2056
2060
2064
2069
2075
2082
2088
2093
2093
2092
2091
2090
2090
2095
2104
2115
2121
2121
2120
2122
2124
2124
2122
2121
2119
2119
2122
2124
2128
2129
2128
2125
2124
2125
2130
2136
2142
2149
2153
2156
2154
2152
2149
2149
2147
2148
2150
2152
2156
2161
2167
2173
2179
2184
2189
2193
2196
2199
2202
2206
2209
2212
2216
2222
2228
2236
2244
2254
2261
2268
2274
2281
2286
2292
2296
2297
2297
2299
2304
2307
2313
2320
2328
2338
2346
2353
2359
2363
2362
2364
2371
2382
2393
2405
2417
2430
2439
2445
2452
2462
2473
2483
2493
2506
2516
2526
2533
2539
2540
2542
2546
2554
2564
2573
2584
2597
2612
2626
2637
2645
2650
2651
2650
2647
2644
2639
2640
2640
2640
2638
2637
2638
2641
2645
2650
2653
2655
2657
2658
2658
2657
2653
2648
2645
2642
2637
2633
2629
2624
2620
2614
2607
2595
2580
2564
2547
2531
2514
2497
2483
2469
2453
2436
2418
2399
2382
2367
2354
2339
2322
2307
2292
2273
2252
2232
2216
2200
2184
2169
2152
2133
2116
2098
2078
2061
2045
2033
2025
2017
2007
1999
1993
1986
1979
1973
1966
1956
1947
1938
1934
1927
1920
1916
1911
1904
1894
1885
1878
1875
1870
1867
1863
1860
1859
1860
1862
1861
1858
1858
1857
1858
1857
1856
1855
1852
1846
1845
1844
1842
1840
1834
1832
1830
1828
1828
1833
1843
1852
1855
1856
1852
1845
1841
1839
1841
1844
1847
1850
1849
1845
1843
1843
1843
1843
1844
1845
1844
1842
1843
1847
1853
1860
1865
1871
1874
1874
1872
1870
1867
1859
1853
1854
1854
1853
1849
1846
1844
1844
1845
1849
1852
1854
1858
1863
1865
1868
1870
1873
1872
1871
1868
1868
1866
1867
1868
1869
1867
1865
1864
1865
1868
1869
1876
1882
1883
1884
1884
1884
1882
1880
1881
1881
1879
1876
1874
1873
1875
1875
1874
1873
1876
1881
1891
1901
1907
1911
1911
1908
1902
1895
1887
1881
1875
1874
1877
1883
1887
1890
1892
1894
1897
1899
1900
1897
1891
1886
1882
1882
1881
1884
1887
1890
1894
1897
1898
1901
1900
1896
1893
1890
1886
1883
1885
1887
1890
1895
1902
1908
1910
1905
1896
1887
1884
1881
1884
1886
1887
1887
1885
1884
1883
1885
1887
1892
1896
1900
1903
1903
1900
1893
1890
1889
1886
1886
1885
1886
1887
1889
1889
1891
1895
1897
1902
1907
1913
1917
1919
1922
1921
1921
1919
1919
1919
1918
1916
1915
1915
1912
1908
1905
1902
1901
1903
1904
1905
1907
1911
1914
1916
1916
1915
1915
1917
1916
1912
1909
1906
1903
1903
1904
1905
1905
1907
1909
1911
1911
1915
1917
1917
1919
1919
1923
1925
1927
1929
1933
1932
1929
1925
1922
1919
1918
1919
1923
1925
1923
1925
1927
1926
1927
1924
1926
1924
1924
1925
1928
1930
1932
1934
1935
1935
1936
1934
1927
1919
1915
1911
1905
1903
1905
1911
1919
1929
1937
1941
1946
1949
1949
1947
1946
1942
1939
1939
1941
1942
1945
1948
1953
1957
1959
1961
1961
1955
1948
1940
1933
1927
1924
1924
1926
1932
1938
1946
1953
1958
1963
1968
1975
1978
1976
1974
1969
1965
1959
1952
1944
1937
1936
1938
1939
1943
1946
1952
1957
1963
1968
1971
1969
1969
1967
1963
1959
1957
1958
1956
1950
1945
1942
1943
1943
1941
1939
1939
1941
1945
1949
1954
1961
1968
1974
1982
1986
1986
1983
1981
1979
1978
1979
1979
1977
1974
1972
1974
1978
1982
1983
1986
1990
1989
1987
1983
1980
1978
1978
1977
1972
1967
1960
1956
1954
1953
1954
1957
1962
1965
1967
1969
1971
1974
1976
1980
1983
1985
1985
1983
1983
1981
1977
1974
1973
1972
1971
1970
1970
1967
1965
1967
1972
1977
1980
1985
1989
1990
1989
1986
1982
1979
1979
1979
1977
1975
1980
1987
1994
1999
1999
2000
2000
2000
1997
1994
1988
1981
1976
1974
1976
1979
1981
1986
1991
1994
1996
1997
1997
1997
1999
2002
2006
2009
2015
2016
2016
2009
2004
2001
2001
2003
2005
2005
2004
2001
1998
1996
1996
1996
1998
2002
2007
2010
2009
2010
2008
2003
1995
1988
1978
1973
1972
1973
1979
1985
1992
1997
1999
1996
1991
1986
1986
1988
1992
1996
2000
2007
2013
2021
2028
2034
2037
2041
2042
2043
2041
2038
2033
2028
2025
2022
2020
2019
2017
2017
2019
2018
2018
2023
2028
2034
2038
2044
2051
2055
2058
2060
2066
2072
2077
2082
2086
2088
2089
2088
2090
2091
2092
2092
2092
2092
2093
2098
2110
2124
2145
2168
2191
2211
2229
2247
2259
2265
2266
2266
2268
2267
2261
2253
2244
2234
2220
2206
2195
2181
2168
2158
2152
2145
2142
2139
2140
2129
2135
2130
2124
2120
2117
2116
2112
2112
2104
2098
2090
2081
2078
2082
2088
2092
2095
2097
2099
2097
2085
2075
2067
2057
2049
2040
2032
2023
2012
2002
1995
1985
1975
1964
1957
1954
1954
1956
1960
1966
1972
1980
1986
1989
1988
1987
1989
1987
1986
1983
1981
1982
1981
1983
1990
1995
2001
2004
2009
2009
2008
2008
2009
2009
2007
2005
2006
2003
2000
1997
1993
1988
1979
1972
1966
1960
1953
1947
1947
1952
1958
1967
1977
1989
1999
2013
2027
2046
2068
2094
2130
2171
2217
2268
2322
2375
2422
2465
2502
2533
2557
2575
2589
2594
2590
2578
2554
2518
2468
2410
2340
2258
2174
2090
2000
1907
1809
1707
1601
1495
1397
1312
1250
1213
1201
1213
1245
1291
1346
1407
1474
1545
1618
1694
1769
1841
1905
1961
2009
2050
2080
2098
2107
2106
2095
2082
2067
2049
2030
2012
1997
1982
1969
1960
1958
1960
1968
1974
1985
1993
2002
2010
2017
2020
2022
2021
2022
2019
2016
2013
2011
2011
2012
2016
2020
2026
2028
2031
2034
2037
2042
2045
2045
2042
2031
2033
2030
2027
2026
2027
2030
2035
2037
2040
2042
2049
2052
2054
2058
2058
2057
2054
2050
2045
2037
2034
2034
2035
2038
2042
2044
2044
2044
2044
2046
2049
2050
2053
2060
2068
2075
2080
2084
2085
2085
2083
2081
2077
2072
2068
2064
2061
2058
2060
2064
2069
2074
2078
2081
2082
2082
2082
2081
2080
2081
2085
2094
2102
2109
2113
2117
2119
2120
2122
2128
2128
2125
2123
2125
2124
2122
2120
2121
2123
2125
2129
2135
2138
2141
2143
2145
2147
2150
2154
2156
2156
2157
2157
2158
2160
2163
2168
2176
2183
2189
2192
2194
2193
2195
2197
2200
2204
2206
2208
2208
2208
2211
2218
2226
2230
2235
2240
2247
2253
2256
2256
2259
2259
2261
2265
2271
2279
2286
2296
2306
2314
2320
2327
2331
2336
2341
2346
2352
2357
2361
2366
2373
2380
2386
2388
2393
2396
2399
2403
2410
2423
2437
2452
2466
2476
2485
2492
2499
2505
2510
2515
2521
2525
2528
2534
2542
2550
2557
2561
2564
2568
2575
2586
2600
2612
2626
2638
2646
2650
2648
2648
2650
2654
2660
2668
2678
2690
2701
2712
2720
2723
2725
2727
2728
2730
2730
2728
2725
2717
2710
2702
2697
2693
2687
2682
2678
2674
2667
2657
2649
2640
2631
2616
2615
2605
2592
2580
2568
2550
2532
2514
2497
2479
2461
2446
2430
2413
2397
2381
2363
2346
2329
2309
2290
2269
2247
2224
2199
2175
2152
2136
2122
2112
2102
2090
2080
2068
2061
2052
2042
2031
2018
2006
1996
1985
1975
1965
1955
1945
1934
1924
1917
1909
1899
1889
1882
1876
1873
1871
1871
1869
1865
1862
1861
1859
1859
1861
1863
1865
1864
1864
1864
1863
1860
1861
1866
1874
1881
1887
1891
1890
1884
1876
1869
1861
1852
1842
1835
1827
1822
1822
1822
1825
1828
1833
1838
1839
1837
1838
1840
1843
1844
1847
1853
1860
1865
1868
1870
1870
1867
1864
1864
1863
1861
1861
1861
1859
1857
1855
1851
1849
1840
1850
1853
1855
1853
1850
1847
1845
1845
1844
1847
1850
1856
1861
1864
1870
1874
1880
1884
1887
1887
1887
1883
1878
1876
1874
1875
1875
1874
1873
1874
1873
1872
1875
1880
1882
1884
1885
1885
1883
1883
1884
1885
1885
1886
1887
1886
1884
1881
1879
1879
1879
1882
1887
1892
1896
1902
1906
1910
1910
1911
1910
1913
1913
1914
1917
1919
1924
1926
1928
1926
1917
1906
1897
1893
1892
1892
1892
1892
1892
1892
1892
1890
1889
1885
1884
1884
1881
1881
1879
1880
1879
1879
1881
1885
1889
1892
1895
1902
1907
1909
1911
1913
1913
1912
1912
1911
1909
1905
1902
1901
1899
1897
1893
1888
1885
1885
1885
1887
1891
1894
1897
1899
1898
1896
1895
1895
1894
1893
1893
1892
1890
1888
1891
1895
1898
1900
1902
1905
1906
1906
1907
1902
1898
1893
1892
1893
1895
1897
1899
1901
1903
1901
1901
1901
1901
1901
1901
1902
1902
1901
1901
1903
1907
1913
1917
1919
1919
1918
1921
1925
1928
1929
1925
1917
1909
1902
1898
1896
1895
1896
1897
1899
1902
1903
1905
1906
1907
1908
1906
1903
1900
1896
1895
1896
1899
1901
1904
1911
1915
1919
1922
1925
1924
1919
1917
1913
1907
1903
1900
1900
1899
1902
1907
1910
1911
1911
1912
1919
1924
1928
1929
1929
1929
1929
1929
1931
1933
1934
1936
1939
1939
1936
1934
1934
1933
1932
1933
1929
1927
1924
1924
1926
1930
1932
1935
1937
1938
1936
1933
1929
1928
1924
1922
1922
1922
1921
1921
1919
1917
1915
1916
1919
1922
1922
1928
1937
1946
1954
1959
1963
1960
1956
1951
1949
1946
1944
1943
1942
1939
1935
1932
1934
1938
1941
1945
1947
1945
1942
1940
1938
1933
1930
1932
1941
1953
1958
1960
1962
1965
1969
1972
1973
1972
1971
1972
1974
1978
1979
1977
1977
1975
1970
1964
1957
1949
1944
1941
1943
1947
1950
1955
1963
1971
1980
1986
1989
1990
1989
1988
1987
1983
1980
1976
1974
1972
1968
1964
1960
1959
1956
1957
1961
1964
1966
1970
1974
1977
1979
1980
1982
1982
1982
1981
1979
1976
1974
1971
1968
1968
1964
1963
1963
1964
1967
1970
1975
1977
1977
1978
1978
1974
1966
1959
1956
1955
1953
1953
1957
1962
1968
1972
1979
1989
1997
2006
2014
2020
2017
2013
2009
2005
1997
1988
1981
1977
1975
1976
1980
1982
1985
1988
1995
2000
2002
2004
2004
2001
1996
1993
1993
1991
1988
1987
1984
1982
1979
1978
1978
1978
1982
1986
1993
1999
2005
2009
2012
2014
2011
2008
2004
2001
1997
1993
1988
1982
1979
1981
1985
1990
1995
1998
2002
2004
2003
1999
2000
2002
2003
2006
2009
2007
2004
2000
1993
1989
1985
1983
1983
1985
1985
1986
1986
1987
1989
1991
1992
1991
1991
1991
1991
1988
1986
1983
1982
1983
1987
1993
2003
2011
2015
2019
2022
2026
2028
2028
2029
2030
2031
2035
2037
2037
2036
2033
2033
2034
2036
2041
2050
2058
2064
2069
2074
2077
2079
2080
2083
2084
2089
2100
2115
2132
2149
2166
2185
2204
2224
2245
2265
2279
2291
2295
2298
2294
2286
2277
2263
2248
2229
2210
2193
2176
2161
2149
2142
2134
2129
2123
2121
2121
2120
2121
2124
2129
2136
2142
2147
2148
2141
2126
2109
2096
2088
2085
