2245
2161
2058
1971
1924
1924
1960
2014
2072
2121
2161
2198
2230
2252
2258
2249
2226
2196
2165
2130
2096
2056
2004
1951
1906
1883
1880
1884
1881
1868
1840
1812
1786
1770
1770
1782
1790
1796
1789
1762
1719
1665
1613
1561
1537
1544
1573
1604
1636
1664
1686
1713
1744
1774
1802
1834
1878
1930
1975
2002
2008
2008
2004
2000
1983
1960
1936
1910
1879
1841
1799
1759
1718
1683
1654
1625
1600
1584
1571
1570
1584
1620
1676
1752
1838
1912
1970
2013
2054
2073
2060
2015
1959
1898
1848
1808
1780
1758
1737
1724
1715
1718
1726
1727
1730
1720
1700
1676
1656
1649
1654
1675
1700
1712
1717
1716
1710
1701
1694
1689
1688
1691
1696
1697
1692
1691
1696
1715
1736
1756
1775
1800
1828
1860
1888
1913
1938
1965
1987
1993
1978
1936
1876
1815
1758
1714
1669
1625
1587
1566
1562
1568
1587
1609
1632
1656
1681
1703
1725
1749
1772
1790
1805
1819
1832
1845
1858
1876
1894
1905
1908
1909
1906
1896
1884
1870
1857
1845
1830
1812
1794
1776
1764
1759
1764
1772
1782
1802
1832
1866
1887
1896
1898
1903
1917
1940
1959
1968
1959
1933
1895
1848
1806
1768
1740
1722
1705
1684
1665
1651
1637
1620
1600
1579
1564
1554
1552
1557
1561
1562
1569
1585
1618
1669
1735
1805
1872
1928
1958
1964
1957
1937
1904
1854
1794
1722
1648
1578
1525
1498
1504
1548
1616
1692
1766
1827
1871
1898
1910
1921
1926
1926
1921
1918
1917
1912
1903
1886
1869
1849
1830
1815
1805
1800
1814
1838
1868
1894
1917
1944
1966
1985
2005
2030
2061
2092
2117
2137
2145
2125
2082
2024
1966
1901
1839
1791
1757
1726
1695
1664
1646
1650
1673
1702
1729
1746
1753
1759
1770
1786
1798
1805
1813
1827
1837
1840
1843
1855
1878
1911
1948
1982
2010
2028
2035
2033
2020
1994
1953
1902
1842
1781
1734
1710
1716
1743
1779
1808
1832
1852
1872
1893
1908
1913
1912
1911
1916
1928
1943
1959
1968
1968
1962
1948
1919
1878
1837
1802
1777
1766
1764
1772
1776
1782
1805
1848
1912
1985
2061
2129
2186
2230
2265
2292
2316
2330
2336
2338
2325
2311
2299
2286
2271
2254
2235
2210
2190
2172
2158
2151
2149
2146
2146
2148
2156
2176
2198
2229
2262
2291
2311
2319
2320
2316
2304
2282
2248
2220
2191
2170
2160
2159
2168
2187
2214
2242
2275
2309
2340
2370
2394
2412
2427
2437
2440
2443
2446
2448
2442
2430
2414
2397
2381
2365
2352
2347
2357
2370
2376
2368
2343
2295
2226
2139
2036
1917
1786
1648
1511
1387
1284
1204
1158
1142
1157
1194
1248
1310
1372
1438
1488
1521
1547
1565
1582
1599
1612
1620
1620
1605
1576
1541
1507
1486
1480
1487
1505
1540
1585
1635
1684
1726
1761
1780
1786
1780
1767
1746
1719
1690
1665
1644
1628
1623
1634
1659
1690
1716
1734
1742
1737
1691
1565
1397
1238
1115
1040
1017
1045
1111
1202
1306
1419
1541
1672
1806
1940
2058
2152
2214
2249
2264
2272
2281
2288
2288
2288
2290
2292
2292
2288
2286
2290
2302
2320
2343
2368
2396
2418
2436
2452
2470
2490
2505
2510
2502
2476
2436
2384
2322
2255
2188
2131
2081
2056
2050
2066
2098
2137
2178
2215
2244
2272
2294
2311
2319
2312
2294
2257
2216
2181
2155
2136
2121
2112
2106
2099
2096
2096
2105
2123
2148
2182
2220
2257
2288
2304
2294
2252
2192
2128
2064
1998
1949
1915
1895
1889
1900
1928
1971
2027
2093
2152
2201
2234
2246
2246
2238
2226
2215
2210
2212
2220
2236
2256
2272
2288
2306
2316
2320
2316
2318
2324
2329
2329
2336
2354
2380
2412
2448
2478
2508
2539
2565
2582
2577
2560
2530
2502
2480
2451
2408
2356
2302
2251
2201
2153
2094
2022
1950
1875
1803
1742
1686
1632
1584
1554
1535
1528
1520
1508
1488
1480
1492
1530
1585
1654
1739
1830
1930
2034
2134
2215
2274
2309
2323
2308
2268
2208
2142
2080
2033
2017
2024
2052
2092
2131
2160
2180
2190
2178
2140
2080
1996
1908
1835
1788
1770
1779
1805
1847
1902
1970
2053
2136
2206
2256
2282
2283
2266
2238
2204
2160
2112
2066
2024
1995
1973
1958
1945
1936
1922
1904
1881
1856
1831
1814
1817
1845
1900
1963
2020
2072
2109
2136
2156
2166
2164
2157
2147
2138
2126
2115
2100
2090
2080
2070
2063
2058
2062
2072
2089
2114
2143
2172
2197
2218
2235
2256
2282
2313
2349
2385
2418
2442
2466
2488
2508
2518
2519
2510
2492
2467
2431
2390
2349
2314
2285
2260
2244
2238
2246
2264
2278
2277
2256
2220
2186
2160
2148
2150
2164
2180
2195
2209
2220
2223
2216
2195
2154
2103
2041
1973
1906
1854
1826
1832
1879
1959
2059
2156
2257
2333
2370
2373
2348
2302
2244
2172
2103
2039
1989
1949
1919
1904
1898
1905
1921
1944
1967
1985
2000
2012
2021
2039
2056
2073
2088
2102
2117
2132
2150
2164
2176
2188
2190
2187
2181
2176
2180
2186
2188
2193
2198
2213
2240
2276
2324
2375
2429
2468
2484
2482
2465
2437
2400
2352
2292
2230
2179
2145
2132
2137
2165
2212
2270
2328
2378
2414
2444
2472
2498
2527
2560
2592
2620
2645
2662
2669
2671
2669
2668
2668
2662
2650
2641
2641
2658
2685
2716
2740
2748
2746
2733
2718
2693
2674
2651
2627
2600
2580
2564
2550
2536
2525
2516
2511
2509
2501
2484
2456
2420
2380
2336
2296
2262
2226
2188
2164
2165
2188
2230
2276
2315
2346
2366
2370
2367
2358
2344
2322
2293
2268
2240
2206
2169
2136
2117
2109
2102
2092
2077
2050
2016
1979
1946
1921
1910
1910
1922
1943
1977
2024
2073
2122
2166
2207
2242
2271
2306
2348
2398
2451
2500
2535
2550
2556
2549
2523
2479
2414
2336
2257
2176
2112
2065
2035
2018
2018
2030
2052
2078
2106
2129
2144
2152
2156
2165
2180
2206
2245
2295
2357
2418
2476
2518
2548
2560
2542
2504
2442
2375
2319
2281
2268
2276
2304
2344
2397
2463
2557
2734
3004
3342
3630
3813
3904
3963
3982
3950
3794
3518
3180
2847
2546
2277
2027
1793
1590
1439
1337
1270
1227
1210
1221
1258
1323
1424
1568
1739
1913
2078
2220
2340
2439
2514
2565
2584
2572
2530
2468
2408
2365
2346
2358
2406
2477
2540
2574
2560
2494
2380
2233
2066
1891
1720
1571
1448
1357
1299
1271
1272
1296
1342
1420
1524
1650
1787
1919
2040
2144
2229
2300
2361
2410
2451
2480
2491
2490
2478
2453
2412
2374
2354
2359
2372
2384
2386
2384
2384
2382
2372
2348
2306
2248
2178
2106
2039
1981
1935
1899
1868
1836
1801
1764
1726
1684
1647
1622
1620
1633
1661
1690
1723
1749
1756
1749
1733
1718
1704
1692
1684
1684
1694
1721
1755
1784
1802
1802
1794
1785
1782
1802
1838
1876
1892
1884
1860
1834
1803
1764
1717
1670
1627
1597
1583
1582
1593
1615
1642
1672
1684
1680
1662
1636
1614
1598
1597
1609
1624
1652
1700
1770
1860
1962
2070
2185
2307
2422
2525
2620
2704
2778
2832
2852
2818
2712
2542
2330
2110
1910
1753
1638
1560
1521
1509
1512
1524
1548
1580
1626
1680
1736
1791
1836
1862
1874
1882
1898
1903
1901
1888
1868
1844
1816
1798
1790
1790
1802
1827
1862
1892
1909
1916
1923
1925
1916
1894
1867
1842
1824
1800
1768
1725
1673
1612
1540
1466
1409
1381
1386
1413
1465
1541
1636
1743
1843
1933
2008
2078
2134
2173
2190
2181
2149
2112
2073
2045
2025
2015
2007
1994
1978
1966
1955
1948
1944
1946
1947
1951
1959
1974
1998
2008
1992
1946
1877
1797
1719
1647
1577
1502
1432
1373
1348
1357
1389
1440
1503
1570
1640
1706
1763
1807
1835
1842
1829
1803
1768
1720
1651
1566
1481
1409
1384
1391
1444
1524
1611
1696
1774
1840
1898
1943
1987
2030
2072
2112
2141
2159
2160
2146
2116
2064
1991
1901
1800
1701
1612
1535
1481
1452
1445
1450
1463
1484
1508
1534
1561
1586
1604
1616
1621
1618
1610
1597
1585
1577
1580
1590
1614
1646
1685
1724
1760
1787
1804
1810
1802
1784
1760
1741
1731
1737
1757
1790
1838
1892
1941
1982
2008
2018
2020
2008
1978
1933
1877
1824
1786
1758
1740
1730
1728
1733
1742
1763
1786
1817
1852
1892
1932
1966
1996
2018
2032
2034
2026
2004
1967
1928
1893
1870
1858
1847
1836
1816
1790
1757
1706
1633
1549
1471
1405
1364
1358
1394
1470
1583
1714
1848
1967
2057
2118
2151
2168
2174
2168
2152
2125
2101
2082
2064
2043
2024
2007
1992
1980
1975
1978
1991
2017
2058
2121
2200
2284
2362
2423
2465
2488
2497
2494
2479
2461
2442
2420
2392
2360
2322
2280
2239
2201
2170
2146
2128
2120
2117
2122
2129
2138
2146
2159
2169
2180
2190
2200
2210
2218
2228
2237
2244
2258
2268
2280
2289
2299
2311
2328
2350
2376
2410
2447
2484
2532
2586
2642
2688
2715
2726
2724
2708
2679
2634
2572
2502
2422
2337
2252
2174
2109
2060
2032
2034
2078
2156
2264
2384
2498
2588
2642
2658
2641
2600
2548
2482
2414
2349
2292
2248
2218
2202
2200
2208
2226
2249
2275
2301
2322
2342
2353
2358
2357
2348
2334
2318
2298
2280
2260
2240
2222
2202
2180
2150
2119
2087
2058
2035
2028
2031
2039
2056
2072
2088
2099
2106
2108
2107
2102
2094
2086
2084
2091
2100
2112
2124
2134
2140
2142
2146
2150
2150
2150
2149
2145
2138
2135
2134
2141
2148
2150
2148
2132
2102
2065
2025
1990
1957
1930
1913
1928
1970
2032
2109
2198
2288
2372
2450
2518
2584
2652
2722
2780
2828
2870
2896
2901
2888
2849
2778
2678
2558
2432
2315
2216
2138
2075
2021
1979
1947
1917
1888
1852
1811
1765
1727
1699
1686
1687
1699
1725
1755
1788
1819
1846
1870
1896
1919
1944
1967
1992
2011
2021
2026
2026
2025
2020
2015
2012
2007
2007
2010
2014
2017
2019
2019
2018
2018
2020
2023
2029
2037
2046
2056
2064
2075
2086
2093
2100
2104
2105
2104
2100
2097
2096
2098
2107
2121
2142
2173
2220
2269
2312
2343
2362
2372
2372
2355
2317
2265
2217
2173
2138
2112
2096
2097
2118
2146
2180
2208
2222
2220
2209
2195
2186
2187
2197
2206
2216
2228
2244
2262
2281
2298
2310
2316
2314
2308
2294
2278
2266
2253
2242
2236
2233
2239
2250
2266
2280
2296
2312
2324
2328
2323
2312
2292
2268
2246
2226
2197
2160
2118
2072
2027
1992
1969
1958
1956
1965
1980
2005
2031
2064
2094
2122
2145
2162
2174
2180
2180
2178
2172
2171
2172
2174
2176
2178
2184
2192
2202
2213
2227
2249
2282
2324
2369
2408
2434
2450
2462
2476
2492
2505
2506
2500
2487
2475
2461
2445
2415
2356
2261
2150
2041
1957
1902
1872
1863
1866
1872
1886
1905
1932
1958
1988
2023
2059
2091
2116
2132
2148
2159
2160
2146
2126
2102
2078
2058
2042
2030
2031
2040
2065
2096
2135
2179
2228
2284
2345
2414
2486
2554
2617
2668
2711
2741
2758
2752
2721
2658
2569
2464
2360
2269
2191
2133
2092
2070
2060
2065
2082
2108
2137
2168
2204
2241
2282
2320
2358
2394
2427
2456
2482
2502
2518
2533
2546
2561
2572
2579
2586
2592
2594
2591
2584
2577
2566
2560
2554
2550
2546
2547
2548
2551
2558
2564
2571
2580
2586
2592
2596
2599
2600
2600
2598
2596
2594
2591
2586
2583
2580
2576
2569
2562
2548
2537
2523
2508
2492
2473
2453
2432
2409
2383
2358
2332
2306
2282
2262
2241
2220
2200
2178
2156
2138
2119
2103
2090
2078
2069
2064
2059
2056
2051
2046
2041
2029
2009
1985
1958
1933
1913
1902
1895
1894
1896
1896
1897
1897
1897
1900
1906
1915
1923
1929
1931
1932
1932
1930
1923
1912
1901
1889
1878
1871
1865
1860
1856
1853
1853
1855
1860
1865
1874
1883
1896
1909
1924
1940
1954
1964
1973
1981
1986
1992
1995
1998
1999
1996
1992
1992
1993
1999
2008
2025
2045
2073
2106
2146
2189
2230
2262
2285
2296
2294
2276
2246
2206
2162
2118
2078
2040
2010
1988
1973
1964
1957
1955
1954
1954
1954
1954
1956
1957
1959
1962
1967
1972
1975
1977
1979
1980
1979
1980
1981
1982
1988
1991
1993
1993
1992
1992
1992
1995
1996
1999
2002
2006
2008
2008
2009
2006
1999
1995
1988
1983
1978
1975
1973
1970
1967
1967
1962
1960
1956
1955
1956
1958
1961
1964
1964
1966
1968
1970
1972
1973
1973
1971
1969
1966
1964
1961
1957
1954
1950
1950
1952
1951
1953
1956
1957
1958
1962
1961
1960
1960
1959
1959
1959
1961
1964
1968
1970
1972
1971
1970
1969
1967
1970
1972
1974
1975
1977
1977
1975
1973
1966
1962
1956
1950
1945
1940
1935
1929
1924
1920
1919
1919
1921
1924
1930
1936
1941
1944
1943
1938
1934
1930
1929
1927
1925
1926
1927
1933
1932
1933
1934
1933
1935
1935
1935
1935
1938
1939
1950
1942
1944
1943
1941
1938
1934
1929
1926
1925
1926
1927
1931
1934
1938
1940
1944
1948
1950
1951
1950
1948
1947
1941
1936
1932
1930
1928
1928
1932
1934
1937
1938
1937
1937
1937
1938
1940
1940
1939
1937
1936
1935
1935
1938
1941
1946
1949
1950
1952
1955
1959
1964
1966
1969
1970
1969
1969
1965
1962
1960
1959
1955
1950
1950
1947
1945
1945
1944
1945
1945
1946
1949
1949
1951
1951
1951
1953
1952
1958
1961
1967
1971
1973
1975
1976
1977
1978
1978
1982
1978
1976
1975
1975
1975
1974
1974
1974
1973
1973
1974
1972
1972
1972
1972
1973
1975
1977
1978
1981
1981
1979
1977
1972
1967
1962
1958
1956
1955
1955
1956
1959
1964
1966
1968
1970
1970
1971
1971
1969
1965
1961
1958
1958
1959
1961
1964
1963
1962
1956
1951
1948
1946
1942
1941
1938
1937
1935
1936
1938
1942
1946
1950
1952
1953
1952
1950
1949
1945
1942
1940
1937
1936
1934
1935
1936
1939
1943
1948
1954
1959
1966
1971
1976
1980
1983
1985
1986
1986
1986
1987
1986
1983
1980
1980
1978
1976
1972
1969
1970
1964
1959
1956
1956
1957
1960
1962
1963
1962
1963
1962
1960
1956
1951
1949
1945
1941
1940
1937
1935
1934
1933
1932
1931
1932
1932
1927
1932
1932
1933
1934
1936
1938
1938
1939
1941
1942
1944
1948
1951
1955
1962
1968
1977
1983
1989
1992
1996
1999
1998
2005
1994
1995
1994
1996
2001
2009
2020
2036
2054
2071
2090
2110
2126
2140
2151
2162
2166
2168
2167
2158
2148
2136
2123
2112
2100
2091
2084
2080
2076
2072
2071
2069
2068
2069
2068
2068
2066
2066
2066
2064
2062
2061
2060
2059
2056
2054
2050
2044
2042
2035
2029
2024
2020
2018
2015
2012
2009
2005
2000
1992
1986
1977
1966
1958
1946
1937
1929
1923
1919
1914
1912
1912
1912
1912
1914
1917
1919
1923
1924
1926
1925
1925
1924
1924
1924
1922
1922
1922
1922
1921
1921
1919
1922
1923
1922
1923
1925
1926
1924
1923
1919
1917
1914
1912
1906
1905
1906
1905
1906
1908
1910
1913
1919
1926
1935
1945
1957
1972
1990
2012
2038
2072
2104
2144
2180
2221
2263
2308
2350
2388
2422
2448
2467
2482
2490
2489
2476
2453
2419
2378
2330
2276
2218
2157
2089
2018
1944
1867
1790
1707
1625
1554
1490
1442
1410
1394
1393
1404
1424
1452
1484
1523
1564
1607
1651
1700
1750
1798
1846
1889
1928
1960
1985
2002
2012
2016
2014
2008
1998
1988
1979
1970
1962
1955
1948
1944
1945
1950
1956
1961
1963
1963
1961
1958
1952
1948
1945
1945
1940
1940
1943
1946
1953
1961
1967
1971
1977
1983
1990
1996
2001
2003
2004
2006
2006
2004
2003
1999
1997
1995
1991
1992
1993
1992
1992
1993
1993
1994
1994
1994
1996
1996
1996
1998
1997
1999
1999
1998
1999
1999
2000
2001
2001
2002
2002
2002
2004
2006
2011
2014
2015
2018
2018
2019
2016
2015
2013
2010
2011
2009
2009
2010
2010
2010
2009
2008
2008
2006
2008
2012
2016
2023
2027
2030
2033
2035
2035
2035
2034
2033
2033
2033
2030
2031
2030
2028
2028
2030
2029
2031
2031
2035
2037
2039
2041
2045
2050
2054
2055
2056
2058
2061
2064
2067
2070
2074
2080
2084
2086
2088
2090
2092
2092
2094
2094
2096
2097
2100
2104
2108
2112
2114
2116
2121
2122
2127
2129
2132
2137
2139
2144
2150
2159
2167
2174
2178
2182
2186
2188
2190
2192
2196
2199
2203
2208
2216
2222
2234
2247
2258
2266
2274
2282
2286
2289
2290
2292
2290
2292
2292
2292
2297
2300
2304
2310
2316
2324
2334
2344
2354
2366
2376
2386
2396
2404
2409
2412
2416
2419
2422
2426
2430
2435
2441
2446
2453
2460
2469
2479
2487
2497
2504
2509
2516
2524
2531
2540
2552
2563
2575
2586
2596
2604
2608
2611
2611
2609
2606
2604
2603
2599
2599
2596
2596
2593
2592
2590
2587
2585
2582
2580
2576
2574
2569
2566
2564
2558
2554
2550
2543
2538
2531
2523
2517
2508
2500
2493
2487
2484
2488
2504
2529
2560
2593
2621
2645
2660
2668
2673
2667
2660
2649
2632
2616
2598
2578
2560
2538
2518
2497
2476
2456
2436
2417
2399
2382
2367
2354
2342
2329
2316
2304
2290
2278
2266
2253
2240
2224
2209
2192
2176
2162
2153
2145
2141
2140
2139
2142
2145
2145
2144
2139
2132
2125
2116
2107
2096
2087
2074
2062
2050
2040
2034
2028
2023
2019
2015
2012
2010
2006
2003
1999
1996
1995
1992
1989
1987
1983
1979
1977
1975
1973
1972
1970
1967
1965
1964
1965
1965
1970
1973
1978
1984
1992
2001
2012
2021
2031
2042
2053
2061
2068
2074
2076
2074
2067
2059
2045
2033
2018
2002
1987
1972
1960
1949
1930
1928
1922
1916
1913
1912
1913
1915
1917
1918
1923
1926
1930
1936
1939
1943
1945
1946
1947
1948
1947
1946
1943
1940
1936
1934
1929
1926
1924
1923
1922
1926
1930
1934
1939
1945
1951
1956
1959
1960
1961
1956
1952
1942
1934
1928
1922
1919
1916
1914
1916
1919
1924
1930
1936
1943
1950
1955
1959
1958
1958
1956
1950
1943
1937
1929
1923
1918
1913
1908
1906
1902
1901
1900
1900
1899
1900
1898
1896
1896
1894
1892
1890
1890
1889
1890
1891
1892
1893
1893
1896
1898
1898
1898
1900
1898
1899
1897
1897
1895
1896
1899
1898
1898
1897
1896
1896
1897
1898
1896
1894
1891
1890
1890
1890
1888
1887
1888
1890
1892
1893
1895
1895
1895
1894
1893
1892
1893
1893
1893
1894
1894
1896
1896
1897
1896
1896
1898
1897
1898
1900
1900
1901
1901
1900
1896
1892
1888
1886
1886
1888
1892
1895
1898
1902
1905
1907
1909
1908
1908
1909
1910
1910
1910
1910
1909
1910
1911
1914
1919
1923
1925
1927
1931
1932
1932
1932
1931
1928
1927
1924
1923
1922
1924
1924
1922
1918
1916
1914
1911
1911
1911
1912
1914
1914
1916
1915
1914
1916
1916
1916
1916
1917
1918
1919
1920
1920
1922
1922
1921
1921
1918
1918
1917
1917
1917
1916
1918
1921
1922
1925
1928
1930
1933
1936
1938
1942
1944
1945
1944
1944
1941
1938
1937
1933
1930
1926
1923
1924
1923
1924
1925
1925
1925
1924
1924
1924
1923
1924
1924
1926
1930
1936
1939
1942
1943
1946
1948
1949
1950
1949
1948
1946
1945
1941
1939
1937
1934
1934
1935
1940
1945
1952
1961
1969
1974
1978
1980
1982
1985
1988
1989
1989
1992
1990
1988
1986
1983
1979
1974
1970
1970
1968
1970
1975
1985
1997
2010
2027
2044
2064
2082
2098
2116
2128
2139
2148
2152
2154
2153
2150
2144
2138
2131
2123
2114
2108
2098
2092
2085
2080
2074
2069
2068
2064
2064
2064
2064
2064
2064
2064
2064
2062
2061
2059
2056
2055
2052
2052
2045
2042
2039
2036
2030
2025
2021
2018
2014
2014
2008
2004
2002
1997
1993
1984
1977
1968
1958
1948
1938
1927
1917
1905
1895
1885
1880
1879
1884
1895
1901
1906
1908
1908
1908
1908
1910
1912
1912
1914
1916
1918
1919
1918
1916
1914
1911
1908
1905
1906
1902
1900
1898
1897
1897
1897
1899
1902
1906
1910
1915
1918
1920
1921
1923
1924
1926
1930
1935
1944
1954
1966
1980
1996
2020
2049
2082
2120
2161
2205
2248
2296
2342
2384
2420
2449
2470
2482
2488
2485
2474
2455
2423
2386
2341
2290
2233
2174
2112
2044
1972
1897
1817
1732
1647
1564
1488
1426
1373
1338
1318
1314
1321
1338
1364
1396
1434
1478
1524
1574
1626
1679
1730
1780
1824
1865
1898
1926
1947
1962
1974
1981
1981
1978
1970
1960
1950
1942
1934
1929
1925
1925
1926
1928
1933
1936
1942
1946
1952
1956
1961
1963
1965
1965
1963
1961
1958
1954
1952
1950
1951
1952
1955
1957
1959
1960
1960
1958
1956
1956
1954
1954
1954
1953
1953
1954
1953
1956
1960
1967
1971
1974
1976
1977
1978
1978
1980
1982
1983
1985
1987
1990
1992
1996
2002
2005
2009
2011
2012
2011
2009
2008
2006
2002
1999
1994
1990
1988
1986
1986
1986
1989
1994
1999
2005
2009
2013
2015
2016
2018
2018
2016
2015
2014
2014
2014
2015
2016
2018
2021
2022
2025
2029
2032
2036
2039
2042
2044
2045
2048
2047
2049
2047
2049
2050
2050
2049
2050
2050
2052
2053
2052
2054
2056
2057
2058
2060
2064
2068
2071
2072
2076
2078
2080
2082
2082
2084
2086
2090
2097
2104
2112
2120
2125
2127
2128
2125
2124
2124
2124
2128
2130
2132
2132
2134
2134
2138
2141
2146
2152
2156
2160
2166
2174
2180
2186
2190
2195
2199
2204
2211
2214
2218
2220
2224
2226
2229
2232
2233
2237
2240
2248
2256
2265
2274
2284
2291
2298
2304
2312
2316
2322
2326
2330
2332
2336
2339
2342
2348
2353
2360
2370
2381
2394
2406
2420
2430
2441
2448
2454
2459
2461
2463
2465
2466
2468
2468
2470
2473
2476
2479
2482
2486
2489
2494
2498
2502
2506
2512
2520
2525
2531
2534
2536
2537
2537
2537
2537
2536
2536
2536
2535
2532
2529
2525
2519
2513
2504
2498
2491
2483
2472
2461
2450
2438
2427
2416
2404
2389
2377
2360
2348
2329
2313
2296
2282
2266
2252
2235
2221
2204
2188
2172
2153
2136
2117
2101
2082
2068
2054
2036
2022
2006
1992
1980
1970
1960
1954
1949
1945
1942
1939
1932
1927
1919
1913
1905
1894
1884
1873
1864
1855
1847
1842
1837
1834
1832
1831
1831
1832
1833
1831
1828
1824
1822
1819
1818
1816
1814
1812
1808
1807
1804
1803
1800
1798
1796
1794
1794
1794
1793
1796
1797
1800
1802
1806
1808
1810
1812
1812
1812
1814
1814
1816
1818
1820
1820
1819
1817
1818
1816
1815
1814
1812
1813
1811
1810
1808
1805
1804
1800
1799
1798
1798
1800
1805
1809
1814
1820
1824
1827
1830
1831
1830
1830
1831
1830
1828
1826
1823
1822
1823
1824
1826
1832
1834
1839
1843
1845
1850
1853
1854
1853
1852
1851
1848
1847
1845
1844
1846
1845
1848
1850
1854
1856
1860
1862
1864
1866
1868
1870
1869
1869
1868
1867
1865
1863
1858
1855
1858
1858
1857
1860
1863
1865
1867
1870
1872
1875
1876
1878
1878
1878
1877
1876
1874
1873
1872
1870
1869
1866
1866
1865
1867
1870
1875
1878
1884
1886
1891
1893
1896
1898
1899
1899
1896
1891
1887
1883
1880
1880
1879
1878
1880
1881
1880
1882
1885
1886
1889
1888
1887
1885
1880
1878
1876
1873
1870
1868
1866
1865
1865
1866
1870
1874
1877
1879
1880
1883
1883
1883
1885
1887
1888
1892
1893
1893
1892
1891
1890
1887
1885
1884
1884
1882
1882
1883
1883
1885
1889
1890
1891
1889
1887
1885
1882
1880
1877
1878
1882
1887
1887
1891
1892
1894
1894
1894
1896
1897
1901
1902
1903
1904
1903
1902
1900
1898
1899
1899
1898
1898
1898
1897
1898
1898
1901
1900
1901
1903
1903
1903
1905
1906
1910
1913
1914
1916
1915
1914
1912
1911
1911
1912
1912
1913
1913
1914
1915
1918
1919
1917
1919
1919
1920
1919
1918
1916
1916
1914
1913
1911
1910
1912
1912
1913
1914
1914
1917
1920
1923
1924
1928
1928
1931
1932
1932
1931
1932
1932
1931
1929
1929
1928
1929
1928
1929
1931
1933
1935
1936
1936
1938
1938
1941
1940
1942
1944
1946
1947
1946
1944
1941
1940
1939
1939
1938
1937
1938
1940
1943
1945
1949
1953
1956
1960
1965
1968
1969
1972
1975
1975
1979
1983
1985
1987
1986
1984
1987
1990
1991
1992
1995
1996
1994
1992
1988
1984
1982
1983
1985
1991
1999
2012
2026
2043
2062
2079
2097
2114
2128
2138
2148
2155
2160
2163
2164
2164
2162
2157
2153
2148
2143
2139
2132
2125
2118
2112
2103
2095
2087
2080
2076
2074
2073
2074
2076
2078
2082
2082
2080
2080
2076
2072
2066
2060
2056
2050
2046
2044
2041
2037
2034
2031
2027
2024
2019
2012
2008
2002
1994
1986
1975
1962
1950
1940
1929
1921
1912
1908
1904
1902
1901
1903
1904
1906
1906
1908
1911
1912
1914
1915
1916
1921
1924
1927
1930
1932
1934
1935
1936
1937
1939
1939
1937
1936
1933
1932
1929
1926
1924
1920
1918
1914
1911
1911
1910
1910
1913
1914
1917
1919
1928
1938
1947
1960
1971
1983
2000
2018
2043
2073
2106
2146
2189
2237
2287
2338
2386
2428
2463
2488
2508
2520
2525
2524
2513
2489
2451
2402
2346
2284
2216
2148
2077
2000
1925
1849
1772
1692
1616
1545
1488
1443
1412
1398
1396
1403
1421
1442
1471
1506
1548
1594
1645
1698
1750
1800
1848
1892
1932
1964
1988
2004
2012
2015
2013
2009
2000
1990
1978
1968
1958
1950
1945
1940
1938
1938
1940
1948
1957
1969
1979
1988
1994
1999
1998
1998
2001
2001
2002
2004
2002
2001
2004
2003
2004
2004
2005
2004
2002
2001
2002
2002
2005
2007
2010
2011
2013
2014
2016
2018
2019
2023
2026
2028
2030
2032
2034
2034
2037
2038
2039
2040
2041
2039
2036
2033
2030
2028
2025
2022
2022
2022
2023
2026
2030
2034
2039
2042
2048
2052
2054
2053
2052
2050
2047
2048
2050
2052
2056
2058
2061
2065
2070
2072
2076
2076
2078
2077
2077
2075
2077
2076
2074
2072
2070
2072
2073
2074
2077
2078
2081
2084
2086
2088
2087
2088
2090
2092
2095
2095
2098
2100
2100
2102
2104
2106
2110
2112
2116
2119
2124
2128
2132
2134
2138
2142
2148
2153
2158
2160
2162
2162
2163
2162
2162
2163
2164
2166
2167
2170
2173
2178
2179
2182
2186
2188
2194
2200
2206
2212
2218
2224
2232
2236
2240
2243
2246
2249
2251
2253
2259
2262
2268
2274
2278
2286
2292
2298
2305
2308
2315
2320
2326
2332
2336
2342
2347
2352
2358
2362
2372
2380
2389
2398
2406
2418
2430
2444
2456
2466
2474
2478
2481
2482
2484
2484
2485
2486
2490
2494
2501
2508
2516
2523
2530
2538
2544
2554
2564
2572
2580
2587
2592
2595
2596
2597
2600
2601
2604
2606
2610
2614
2618
2620
2624
2628
2630
2632
2634
2634
2635
2638
2639
2641
2640
2638
2636
2633
2628
2623
2616
2602
2602
2592
2582
2572
2560
2548
2538
2527
2516
2504
2491
2475
2457
2438
2418
2398
2381
2362
2343
2326
2313
2302
2288
2278
2266
2253
2241
2229
2219
2208
2196
2182
2166
2149
2129
2112
2094
2077
2063
2048
2034
2026
2018
2013
2009
2004
1998
1992
1986
1980
1974
1969
1961
1956
1951
1946
1942
1938
1934
1931
1929
1927
1926
1924
1922
1920
1920
1919
1918
1919
1915
1911
1905
1899
1892
1888
1883
1880
1880
1882
1885
1888
1891
1894
1897
1897
1900
1902
1904
1905
1908
1908
1908
1908
1909
1908
1908
1910
1910
1911
1913
1912
1912
1911
1911
1910
1910
1910
1909
1909
1908
1907
1906
1906
1905
1905
1903
1902
1902
1902
1902
1902
1903
1905
1907
1909
1911
1912
1912
1914
1913
1913
1913
1915
1915
1916
1915
1917
1916
1916
1916
1916
1916
1918
1918
1918
1918
1921
1922
1922
1922
1919
1919
1918
1918
1917
1916
1914
1913
1911
1912
1911
1913
1914
1916
1917
1920
1924
1926
1929
1932
1934
1937
1940
1943
1944
1943
1944
1941
1940
1940
1938
1937
1936
1936
1936
1935
1936
1935
1934
1935
1934
1936
1938
1938
1940
1940
1940
1942
1941
1940
1938
1938
1938
1939
1938
1937
1936
1936
1936
1935
1937
1937
1936
1936
1934
1932
1936
1936
1939
1943
1945
1947
1947
1946
1945
1944
1946
1950
1953
1953
1952
1949
1946
1940
1934
1928
1926
1924
1926
1927
1928
1931
1933
1937
1941
1943
1945
1948
1948
1948
1946
1944
1941
1940
1939
1936
1934
1934
1934
1931
1929
1928
1925
1924
1924
1925
1926
1929
1932
1934
1936
1938
1940
1942
1943
1942
1940
1938
1935
1932
1928
1927
1927
1928
1930
1932
1936
1938
1942
1942
1944
1944
1943
1942
1942
1940
1940
1940
1941
1942
1942
1941
1941
1940
1939
1936
1937
1939
1941
1944
1948
1951
1953
1954
1958
1958
1957
1956
1956
1953
1953
1952
1953
1954
1952
1951
1950
1949
1949
1949
1949
1950
1950
1951
1950
1948
1943
1946
1944
1943
1940
1940
1943
1945
1947
1950
1954
1960
1963
1967
1967
1968
1968
1967
1965
1964
1962
1961
1961
1958
1957
1960
1962
1965
1969
1970
1973
1975
1975
1976
1975
1973
1972
1973
1972
1972
1972
1972
1971
1970
1967
1967
1965
1966
1969
1971
1974
1976
1978
1978
1977
1975
1974
1972
1971
1967
1964
1965
1965
1966
1968
1971
1973
1975
1978
1976
1975
1973
1972
1970
1970
1972
1973
1976
1978
1980
1982
1986
1988
1991
1994
1999
2004
2008
2014
2020
2024
2028
2031
2033
2033
2031
2030
2027
2025
2022
2019
2015
2012
2010
2009
2005
2007
2010
2013
2015
2018
2023
2029
2039
2050
2062
2077
2094
2107
2120
2133
2146
2160
2171
2182
2190
2198
2201
2204
2202
2200
2193
2188
2181
2171
2162
2152
2143
2133
2124
2117
2112
2108
2107
2107
2106
2106
2106
2108
2108
2107
2107
2108
2107
2104
2102
2096
2092
2086
2080
2074
2067
2061
2057
2050
2044
2038
2034
2027
2021
2015
2008
2001
1993
1983
1974
1964
1957
1949
1945
1941
1938
1938
1941
1941
1945
1946
1951
1954
1956
1956
1958
1957
1957
1953
1952
1951
1951
1952
1950
1949
1947
1944
1945
1944
1946
1946
1946
1945
1943
1944
1947
1948
1952
1953
1956
1956
1954
1954
1954
1953
1951
1951
1953
1958
1965
1972
1984
1998
2015
2037
2065
2100
2138
2182
2229
2280
2328
2379
2424
2464
2494
2518
2534
2543
2552
2550
2540
2519
2486
2440
2388
2328
2261
2190
2116
2037
1960
1880
1800
1716
1639
1568
1509
1466
1442
1434
1438
1453
1476
1502
1533
1572
1612
1657
1702
1748
1790
1830
1866
1901
1930
1953
1972
1985
1994
2000
2000
1999
1995
1988
1981
1974
1968
1962
1956
1952
1948
1946
1947
1948
1951
1952
1954
1958
1961
1964
1969
1972
1972
1975
1977
1978
1979
1980
1979
1979
1978
1979
1979
1980
1981
1983
1986
1986
1985
1985
1985
1988
1990
1992
1994
2000
2006
2010
2015
2020
2022
2022
2022
2020
2020
2017
2018
2015
2015
2015
2014
2014
2014
2012
2012
2012
2015
2019
2023
2028
2034
2039
2044
2045
2047
2046
2046
2043
2043
2042
2043
2045
2048
2051
2052
2053
2056
2058
2056
2055
2056
2057
2056
2058
2059
2058
2060
2062
2066
2069
2072
2076
2078
2080
2080
2080
2081
2080
2080
2078
2078
2080
2084
2086
2086
2088
2090
2093
2093
2095
2097
2102
2104
2108
2112
2113
2117
2119
2122
2128
2130
2133
2136
2137
2138
2139
2140
2140
2140
2141
2143
2147
2150
2154
2158
2162
2166
2170
2176
2180
2186
2191
2196
2200
2204
2205
2208
2212
2217
2221
2224
2230
2234
2238
2242
2248
2253
2257
2260
2264
2267
2271
2276
2282
2285
2290
2297
2302
2311
2316
2325
2334
2342
2349
2356
2362
2368
2371
2376
2380
2384
2390
2394
2399
2406
2412
2419
2426
2436
2443
2451
2460
2466
2472
2477
2482
2485
2488
2492
2496
2501
2510
2519
2528
2538
2544
2548
2554
2557
2562
2566
2572
2576
2581
2586
2590
2594
2596
2598
2601
2603
2604
2605
2606
2607
2609
2610
2612
2614
2616
2618
2619
2618
2615
2612
2608
2604
2599
2592
2584
2572
2558
2548
2537
2525
2516
2507
2496
2486
2474
2460
2447
2431
2415
2400
2382
2365
2346
2328
2311
2293
2277
2259
2242
2224
2207
2190
2176
2163
2152
2141
2132
2120
2109
2097
2086
2074
2061
2047
2038
2021
2009
1999
1989
1983
1981
1980
1976
1973
1968
1964
1958
1953
1948
1942
1936
1931
1924
1917
1914
1909
1905
1900
1895
1892
1887
1884
1882
1882
1882
1882
1883
1884
1885
1886
1887
1887
1887
1885
1887
1887
1884
1882
1882
1882
1880
1878
1876
1874
1875
1875
1875
1877
1878
1878
1877
1878
1878
1877
1876
1877
1878
1878
1877
1876
1876
1876
1877
1876
1875
1876
1876
1876
1876
1878
1879
1880
1882
1882
1880
1879
1880
1877
1876
1877
1878
1881
1884
1888
1892
1892
1894
1895
1895
1897
1896
1897
1898
1896
1895
1895
1894
1892
1891
1889
1889
1889
1889
1891
1894
1896
1898
1901
1902
1903
1903
1904
1903
1902
1902
1902
1902
1901
1900
1901
1900
1900
1900
1902
1904
1907
1912
1913
1914
1918
1919
1921
1921
1922
1919
1919
1919
1915
1914
1911
1911
1909
1909
1910
1911
1913
1916
1916
1917
1917
1914
1913
1912
1912
1910
1908
1908
1910
1911
1913
1915
1917
1919
1921
1922
1922
1923
1924
1923
1922
1919
1918
1918
1917
1917
1915
1912
1910
1911
1909
1908
1910
1911
1911
1911
1911
1911
1912
1916
1919
1921
1924
1927
1928
1926
1926
1926
1924
1922
1922
1921
1920
1921
1918
1918
1918
1919
1923
1926
1929
1930
1932
1933
1934
1935
1935
1936
1934
1931
1928
1924
1919
1916
1915
1913
1912
1911
1911
1912
1915
1917
1918
1919
1922
1923
1923
1922
1921
1919
1917
1918
1919
1922
1926
1929
1934
1937
1941
1943
1945
1946
1945
1942
1940
1936
1934
1932
1930
1929
1927
1926
1927
1927
1930
1932
1936
1938
1940
1942
1942
1942
1943
1942
1941
1940
1938
1937
1935
1934
1932
1932
1934
1936
1940
1942
1943
1946
1946
1946
1946
1947
1946
1948
1947
1946
1946
1944
1944
1939
1936
1934
1932
1934
1938
1942
1945
1949
1951
1953
1955
1953
1952
1950
1948
1946
1947
1951
1955
1958
1960
1960
1960
1961
1960
1960
1962
1962
1960
1959
1958
1957
1957
1956
1956
1955
1954
1954
1954
1953
1956
1956
1955
1952
1954
1955
1956
1958
1959
1960
1961
1960
1959
1958
1958
1959
1959
1962
1962
1963
1963
1962
1960
1960
1959
1961
1964
1965
1969
1971
1974
1975
1976
1977
1975
1974
1973
1972
1970
1969
1967
1966
1965
1964
1965
1964
1966
1968
1970
1970
1973
1974
1975
1977
1977
1977
1978
1976
1974
1972
1970
1970
1971
1972
1974
1976
1977
1980
1980
1980
1981
1981
1980
1979
1977
1976
1974
1972
1970
1972
1973
1972
1972
1971
1972
1975
1975
1980
1983
1987
1991
1996
2001
2002
2002
2002
1999
1998
1998
1995
1996
1994
1996
1999
2002
2008
2014
2020
2026
2028
2031
2031
2031
2029
2029
2028
2028
2030
2033
2032
2030
2028
2025
2022
2020
2018
2021
2022
2029
2039
2054
2067
2085
2100
2116
2132
2146
2157
2168
2178
2185
2192
2196
2200
2200
2201
2199
2197
2192
2186
2178
2168
2160
2150
2141
2133
2126
2120
2114
2110
2107
2104
2104
2102
2101
2100
2098
2097
2096
2092
2091
2090
2088
2085
2084
2081
2078
2075
2074
2073
2071
2068
2062
2058
2052
2044
2037
2030
2022
2012
2004
1995
1983
1972
1961
1950
1944
1938
1934
1933
1934
1937
1940
1944
1948
1952
1957
1960
1965
1968
1972
1973
1974
1974
1974
1973
1971
1970
1969
1969
1969
1970
1971
1973
1974
1974
1974
1974
1974
1971
1967
1964
1954
1960
1961
1964
1966
1966
1966
1970
1973
1977
1983
1989
1998
2012
2031
2060
2096
2138
2183
2232
2282
2334
2384
2428
2464
2493
2516
2531
2545
2553
2555
2547
2527
2492
2446
2392
2330
2260
2187
2106
2024
1943
1862
1778
1696
1613
1542
1484
1440
1416
1407
1416
1431
1456
1486
1522
1565
1612
1660
1709
1760
1806
1850
1891
1924
1950
1969
1981
1990
1996
1998
1998
1994
1989
1980
1973
1964
1958
1954
1951
1953
1954
1958
1962
1964
1966
1969
1972
1974
1976
1979
1984
1990
1994
1999
2001
2002
2001
2000
1999
1997
1996
1993
1991
1988
1986
1984
1986
1989
1989
1993
1996
2000
2005
2009
2014
2018
2023
2024
2026
2027
2027
2028
2029
2029
2028
2026
2024
2020
2019
2016
2018
2019
2020
2024
2028
2033
2036
2037
2037
2036
2036
2036
2037
2036
2037
2038
2039
2040
2042
2047
2050
2053
2057
2059
2060
2062
2061
2064
2068
2073
2079
2082
2084
2086
2084
2083
2082
2080
2077
2074
2072
2070
2071
2072
2075
2080
2086
2089
2093
2096
2096
2098
2099
2098
2098
2099
2101
2103
2108
2110
2114
2118
2120
2120
2122
2124
2125
2126
2126
2127
2129
2129
2131
2132
2134
2134
2134
2134
2135
2137
2140
2144
2149
2154
2158
2163
2167
2173
2181
2186
2192
2198
2202
2205
2207
2208
2209
2210
2214
2218
2220
2224
2228
2233
2236
2242
2246
2250
2256
2263
2270
2276
2282
2286
2290
2292
2295
2297
2302
2308
2312
2320
2326
2333
2340
2348
2354
2362
2368
2378
2383
2390
2396
2403
2408
2413
2418
2421
2426
2430
2437
2443
2448
2454
2460
2466
2473
2481
2488
2495
2503
2510
2515
2521
2524
2528
2534
2540
2544
2550
2556
2560
2564
2569
2574
2582
2588
2595
2600
2605
2605
2608
2609
2610
2608
2608
2607
2605
2603
2603
2602
2602
2603
2606
2607
2608
2606
2604
2602
2598
2593
2586
2578
2565
2550
2535
2520
2504
2487
2471
2457
2446
2436
2424
2413
2400
2388
2371
2356
2340
2322
2305
2284
2266
2246
2228
2210
2194
2179
2165
2153
2140
2130
2120
2109
2096
2086
2074
2064
2053
2042
2031
2020
2011
2001
1991
1982
1976
1967
1960
1956
1952
1948
1944
1941
1938
1933
1929
1922
1918
1911
1907
1902
1898
1892
1890
1887
1883
1880
1879
1878
1877
1876
1876
1877
1880
1882
1884
1887
1888
1890
1893
1896
1896
1896
1893
1888
1882
1875
1868
1864
1860
1860
1862
1866
1868
1870
1871
1871
1869
1867
1866
1866
1865
1864
1864
1867
1866
1868
1869
1868
1869
1867
1866
1864
1865
1865
1866
1870
1873
1876
1878
1877
1878
1878
1878
1879
1879
1878
1878
1881
1883
1883
1884
1886
1886
1886
1887
1886
1888
1890
1892
1893
1895
1897
1898
1900
1901
1904
1905
1904
1905
1906
1907
1908
1909
1910
1909
1909
1908
1908
1907
1908
1909
1910
1908
1909
1908
1906
1906
1906
1906
1909
1910
1911
1912
1915
1919
1922
1926
1930
1934
1936
1936
1933
1931
1929
1928
1926
1924
1921
1918
1917
1915
1914
1917
1918
1921
1923
1924
1926
1928
1928
1928
1926
1926
1924
1926
1925
1925
1926
1928
1930
1932
1933
1932
1931
1930
1929
1928
1928
1926
1925
1924
1922
1922
1921
1924
1926
1927
1927
1928
1930
1931
1934
1935
1936
1937
1936
1936
1935
1935
1934
1934
1932
1932
1933
1934
1934
1934
1934
1935
1935
1936
1938
1939
1940
1942
1943
1944
1947
1948
1948
1946
1943
1940
1936
1932
1930
1930
1930
1935
1940
1942
1944
1944
1944
1943
1941
1939
1936
1935
1934
1935
1936
1936
1934
1937
1932
1931
1930
1930
1931
1935
1936
1939
1940
1944
1947
1948
1950
1949
1948
1945
1942
1938
1933
1930
1929
1930
1933
1935
1935
1937
1938
1939
1940
1940
1940
1942
1941
1944
1944
1944
1942
1940
1939
1938
1938
1938
1939
1941
1944
1945
1946
1947
1947
1947
1948
1948
1949
1950
1951
1951
1952
1953
1954
1955
1954
1956
1956
1958
1960
1964
1965
1969
1969
1967
1966
1962
1960
1958
1955
1955
1954
1954
1952
1951
1950
1949
1949
1950
1952
1954
1956
1960
1962
1964
1967
1969
1972
1972
1974
1975
1976
1977
1977
1976
1976
1974
1972
1970
1967
1966
1964
1963
1962
1962
1962
1965
1968
1971
1971
1971
1970
1969
1966
1966
1965
1965
1966
1966
1969
1972
1974
1976
1978
1978
1979
1981
1981
1982
1981
1978
1977
1976
1976
1978
1979
1981
1983
1983
1986
1987
1987
1987
1988
1988
1989
1990
1991
1992
1994
1995
1995
1993
1991
1987
1987
1988
1987
1989
1990
1990
1989
1988
1986
1986
1989
1992
1995
1998
1998
1989
1996
1992
1988
1986
1986
1988
1990
1992
1994
1996
1998
1997
1998
2001
2005
2007
2012
2015
2019
2022
2023
2026
2026
2026
2024
2022
2021
2021
2022
2022
2022
2022
2023
2026
2030
2034
2037
2040
2044
2047
2055
2063
2076
2088
2102
2116
2130
2145
2158
2172
2184
2194
2202
2208
2213
2217
2219
2220
2215
2210
2202
2191
2178
2165
2155
2146
2138
2133
2128
2124
2120
2119
2118
2119
2121
2124
2128
2130
2130
2129
2126
2123
2118
2113
2110
2104
2100
2096
2091
2087
2082
2078
2073
2066
2058
2054
2043
2034
2025
2015
2004
1995
1986
1980
1972
1967
1962
1960
1957
1954
1956
1959
1964
1968
1972
1976
1980
1982
1981
1981
1980
1978
1977
1976
1974
1972
1971
1971
1970
1972
1973
1975
1975
1976
1977
1977
1977
1976
1975
1973
1969
1966
1962
1961
1956
1953
1950
1948
1949
1951
1954
1959
1965
1973
1981
1992
2005
2025
2052
2086
2126
2168
2210
2253
2299
2346
2390
2428
2460
2486
2506
2522
2534
2544
2544
2532
2508
2472
2424
2370
2306
2234
2156
2072
1982
1890
1798
1702
1607
1522
1449
1393
1357
1341
1343
1358
1382
1415
1452
1495
1544
1595
1650
1700
1752
1801
1847
1889
1928
1958
1979
1996
2006
2013
2013
2009
2005
2000
1990
1981
1972
1964
1958
1955
1953
1953
1956
1961
1966
1970
1976
1982
1986
1989
1992
1994
1996
1996
1997
1997
1999
1999
2003
2006
2009
2011
2012
2013
2014
2013
2013
2012
2011
2012
2012
2013
2014
2015
2017
2018
2020
2021
2022
2024
2023
2024
2022
2022
2024
2024
2026
2028
2032
2036
2038
2040
2041
2042
2042
2044
2045
2048
2050
2053
2054
2058
2058
2062
2066
2069
2073
2078
2082
2086
2090
2093
2093
2093
2093
2093
2093
2093
2095
2094
2094
2095
2096
2094
2094
2094
2093
2094
2094
2096
2099
2101
2104
2105
2104
2107
2106
2107
2107
2108
2108
2108
2108
2110
2112
2117
2120
2124
2129
2134
2138
2142
2147
2150
2156
2157
2156
2156
2155
2156
2154
2153
2155
2148
2157
2159
2161
2165
2168
2170
2176
2181
2187
2192
2198
2202
2206
2208
2208
2210
2209
2212
2214
2220
2226
2232
2238
2246
2252
2256
2260
2262
2266
2268
2271
2274
2276
2278
2280
2282
2286
2288
2292
2294
2298
2304
2310
2317
2324
2330
2337
2344
2351
2358
2366
2374
2380
2386
2388
2393
2399
2403
2409
2413
2418
2423
2430
2438
2447
2457
2466
2475
2483
2490
2498
2505
2512
2518
2525
2530
2534
2538
2542
2546
2550
2554
2561
2565
2572
2578
2585
2594
2601
2606
2610
2614
2618
2621
2624
2626
2628
2631
2633
2635
2636
2637
2639
2639
2640
2640
2640
2640
2639
2638
2634
2630
2624
2618
2612
2604
2597
2588
2579
2569
2556
2545
2532
2518
2506
2491
2477
2462
2448
2430
2412
2393
2374
2356
2335
2316
2294
2278
2259
2242
2229
2217
2205
2194
2185
2173
2164
2150
2140
2130
2118
2108
2100
2089
2080
2070
2060
2046
2031
2020
2006
1993
1983
1977
1969
1962
1955
1950
1946
1944
1940
1938
1934
1930
1925
1919
1914
1909
1905
1902
1900
1897
1896
1896
1897
1896
1895
1895
1892
1888
1887
1885
1884
1885
1884
1882
1881
1880
1878
1876
1870
1867
1864
1865
1868
1870
1874
1876
1874
1873
1868
1863
1858
1850
1857
1856
1855
1855
1856
1856
1858
1858
1860
1860
1862
1865
1868
1871
1873
1876
1876
1878
1878
1879
1879
1878
1876
1877
1876
1876
1878
1880
1881
1882
1883
1884
1887
1887
1889
1890
1891
1890
1890
1890
1890
1890
1889
1890
1890
1890
1892
1892
1895
1896
1899
1901
1901
1901
1899
1901
1898
1899
1898
1898
1897
1896
1893
1895
1895
1895
1895
1897
1898
1900
1902
1904
1904
1906
1908
1910
1910
1914
1916
1917
1919
1921
1918
1913
1909
1903
1899
1897
1896
1896
1897
1900
1902
1906
1909
1912
1911
1911
1909
1907
1905
1904
1903
1902
1902
1904
1906
1908
1910
1913
1914
1917
1919
1920
1921
1919
1919
1919
1920
1919
1918
1915
1914
1914
1912
1910
1909
1908
1908
1909
1909
1909
1906
1905
1902
1901
1897
1896
1897
1898
1903
1907
1911
1916
1919
1924
1926
1928
1929
1928
1926
1924
1922
1919
1916
1913
1911
1908
1907
1907
1907
1906
1909
1909
1910
1911
1914
1914
1913
1913
1912
1911
1911
1910
1910
1908
1906
1904
1900
1898
1898
1900
1904
1908
1911
1912
1915
1918
1919
1921
1924
1926
1929
1931
1930
1929
1926
1923
1918
1912
1907
1905
1905
1905
1907
1908
1912
1916
1918
1921
1925
1927
1929
1928
1928
1926
1924
1921
1915
1912
1910
1912
1914
1915
1917
1919
1922
1924
1926
1928
1928
1928
1930
1932
1930
1930
1932
1930
1930
1931
1928
1926
1924
1922
1921
1921
1919
1922
1922
1922
1923
1924
1924
1924
1926
1928
1929
1933
1932
1932
1932
1932
1933
1932
1932
1930
1928
1928
1928
1930
1933
1935
1939
1941
1942
1942
1944
1944
1944
1944
1946
1949
1952
1953
1954
1956
1957
1959
1959
1958
1956
1954
1950
1946
1945
1945
1944
1944
1944
1946
1948
1948
1948
1950
1949
1952
1954
1956
1958
1959
1959
1960
1958
1959
1959
1960
1962
1962
1961
1959
1956
1956
1957
1957
1958
1960
1961
1964
1965
1969
1970
1973
1974
1974
1971
1968
1964
1961
1960
1958
1956
1954
1954
1952
1951
1951
1953
1954
1958
1961
1963
1966
1965
1966
1967
1969
1972
1976
1979
1982
1980
1980
1980
1980
1980
1977
1976
1977
1977
1977
1979
1979
1979
1981
1981
1982
1982
1983
1982
1983
1982
1982
1982
1981
1983
1983
1983
1983
1985
1985
1985
1985
1986
1988
1989
1992
1995
2001
2006
2011
2014
2016
2019
2021
2023
2025
2028
2030
2033
2035
2039
2041
2043
2045
2046
2045
2043
2041
2039
2038
2037
2037
2039
2043
2046
2054
2062
2074
2086
2099
2113
2126
2141
2154
2167
2177
2188
2197
2205
2210
2212
2213
2209
2205
2197
2190
2181
2172
2161
2152
2143
2135
2129
2126
2124
2124
2124
2124
2122
2120
2118
2115
2111
2109
2107
2105
2105
2105
2104
2102
2100
2097
2094
2092
2088
2086
2084
2078
2072
2063
2051
2035
2023
2008
1995
1980
1970
1960
1953
1948
1945
1943
1942
1944
1947
1950
1956
1961
1964
1968
1972
1975
1978
1978
1978
1980
1977
1976
1976
1976
1975
1974
1975
1974
1972
1972
1971
1970
1969
1967
1964
1961
1959
1956
1952
1949
1947
1946
1944
1944
1947
1950
1957
1963
1971
1980
1986
1993
2000
2007
2020
2038
2061
2090
2122
2161
2202
2247
2294
2342
2390
2429
2461
2487
2505
2519
2528
2533
2527
2508
2476
2433
2384
2326
2260
2190
2112
2026
1937
1843
1746
1647
1555
1473
1404
1354
1325
1314
1319
1336
1363
1399
1440
1484
1535
1588
1641
1698
1751
1804
1854
1898
1937
1966
1987
2000
2006
2009
2008
2004
1998
1989
1980
1970
1963
1956
1952
1949
1950
1954
1956
1960
1966
1975
1981
1989
1996
2003
2007
2011
2012
2009
2008
2006
2006
2005
2006
2005
2004
2004
2002
2000
2002
2004
2006
2009
2012
2016
2017
2018
2019
2018
2018
2020
2022
2026
2027
2030
2031
2031
2033
2032
2034
2036
2038
2039
2041
2045
2050
2052
2053
2054
2054
2053
2052
2050
2050
2046
2049
2046
2046
2046
2048
2050
2052
2054
2057
2061
2066
2070
2070
2073
2076
2076
2074
2074
2072
2072
2070
2072
2071
2071
2072
2073
2074
2077
2080
2082
2086
2090
2093
2096
2097
2097
2099
2099
2099
2099
2098
2098
2099
2102
2108
2114
2118
2122
2125
2128
2131
2132
2130
2130
2128
2126
2125
2123
2124
2125
2128
2133
2138
2145
2151
2156
2161
2162
2164
2165
2168
2170
2173
2177
2180
2184
2190
2194
2197
2202
2204
2206
2209
2212
2216
2220
2223
2224
2226
2226
2227
2231
2234
2238
2242
2247
2251
2256
2262
2270
2276
2284
2292
2300
2308
2315
2322
2328
2332
2336
2338
2343
2347
2351
2357
2364
2370
2378
2388
2395
2404
2414
2421
2428
2434
2442
2446
2452
2456
2460
2464
2469
2472
2478
2482
2488
2493
2500
2505
2510
2516
2524
2531
2539
2546
2556
2564
2572
2582
2590
2597
2604
2608
2612
2617
2621
2625
2628
2630
2633
2637
2642
2647
2652
2655
2661
2664
2666
2666
2666
2664
2661
2656
2653
2648
2643
2638
2633
2628
2623
2618
2614
2606
2596
2585
2576
2562
2547
2530
2514
2496
2480
2462
2444
2426
2407
2386
2370
2354
2336
2321
2306
2291
2275
2259
2246
2229
2213
2198
2182
2166
2150
2136
2123
2108
2095
2081
2070
2058
2045
2034
2025
2014
2004
1996
1990
1984
1977
1971
1964
1961
1956
1952
1947
1944
1938
1931
1926
1919
1912
1906
1901
1896
1893
1891
1892
1895
1897
1896
1897
1895
1890
1887
1884
1878
1873
1869
1866
1865
1862
1861
1864
1866
1866
1868
1871
1874
1875
1874
1874
1875
1874
1873
1873
1871
1870
1868
1867
1867
1867
1869
1870
1874
1875
1876
1877
1878
1876
1872
1868
1866
1864
1864
1866
1868
1869
1872
1874
1876
1876
1876
1877
1878
1879
1881
1884
1887
1889
1891
1894
1896
1897
1895
1894
1889
1885
1882
1881
1879
1882
1885
1888
1891
1891
1894
1893
1894
1894
1894
1895
1896
1895
1893
1892
1889
1886
1886
1889
1893
1895
1896
1899
1898
1899
1900
1900
1900
1899
1898
1897
1897
1897
1898
1900
1898
1899
1901
1903
1906
1908
1909
1910
1911
1913
1916
1918
1925
1925
1928
1929
1927
1925
1924
1922
1919
1917
1915
1913
1914
1910
1908
1911
1913
1916
1918
1921
1922
1924
1921
1921
1919
1917
1916
1914
1910
1909
1906
1909
1910
1910
1915
1919
1925
1927
1928
1929
1929
1928
1924
1924
1922
1920
1919
1917
1915
1913
1910
1911
1910
1910
1911
1911
1912
1912
1912
1913
1914
1914
1913
1914
1912
1910
1910
1908
1907
1906
1906
1907
1910
1912
1914
1917
1920
1921
1921
1921
1920
1918
1918
1919
1921
1921
1924
1925
1925
1924
1921
1919
1920
1922
1924
1924
1925
1926
1927
1928
1928
1928
1929
1930
1931
1930
1929
1928
1930
1929
1928
1929
1932
1932
1934
1937
1938
1939
1940
1941
1941
1940
1941
1943
1944
1943
1942
1941
1937
1932
1929
1929
1928
1928
1926
1928
1928
1929
1931
1932
1934
1939
1940
1945
1948
1951
1951
1953
1954
1951
1950
1952
1950
1949
1949
1948
1944
1940
1939
1936
1935
1932
1932
1933
1934
1938
1940
1943
1944
1945
1945
1947
1948
1951
1954
1957
1960
1962
1964
1965
1966
1966
1967
1965
1964
1965
1963
1960
1958
1954
1953
1951
1949
1948
1948
1950
1952
1953
1953
1956
1956
1956
1957
1955
1954
1950
1949
1947
1948
1948
1951
1955
1959
1963
1968
1971
1975
1976
1976
1977
1975
1974
1970
1968
1964
1962
1962
1961
1960
1959
1959
1958
1958
1959
1960
1964
1968
1970
1972
1975
1975
1975
1976
1977
1977
1978
1978
1979
1978
1976
1973
1971
1967
1964
1963
1964
1965
1968
1974
1978
1982
1986
1987
1988
1988
1986
1986
1987
1988
1988
1986
1987
1987
1986
1986
1990
1992
1993
1994
1998
1999
2000
2001
2000
1999
1997
1997
1997
1997
1999
2001
2006
2009
2013
2016
2022
2026
2031
2038
2044
2046
2047
2044
2043
2039
2034
2029
2025
2020
2018
2016
2017
2020
2023
2030
2039
2052
2066
2080
2098
2115
2130
2147
2159
2176
2186
2196
2205
2211
2215
2216
2218
2216
2214
2210
2208
2200
2192
2182
2172
2162
2152
2145
2138
2133
2126
2121
2116
2116
2116
2117
2118
2118
2117
2116
2115
2114
2109
2106
2103
2100
2097
2096
2095
2093
2091
2088
2082
2074
2064
2051
2039
2026
2012
1998
1988
1978
1969
1960
1955
1950
1949
1948
1949
1952
1954
1959
1962
1966
1966
1966
1966
1968
1970
1973
1975
1978
1979
1981
1980
1979
1976
1969
1966
1964
1959
1956
1954
1953
1951
1950
1951
1951
1950
1948
1950
1949
1948
1948
1950
1952
1955
1954
1956
1955
1956
1954
1956
1959
1966
1976
1987
2002
2023
2052
2083
2118
2155
2192
2232
2270
2309
2344
2380
2406
2428
2444
2457
2468
2471
2465
2451
2426
2394
2354
2305
2245
2177
2097
2008
1911
1806
1698
1591
1491
1400
1325
1268
1229
1207
1203
1217
1244
1284
1337
1396
1458
1523
1587
1650
1714
1775
1834
1887
1934
1973
2004
2027
2043
2052
2053
2048
2038
2024
2010
1996
1985
1974
1966
1960
1955
1951
1954
1960
1967
1975
1985
1996
2003
2010
2013
2017
2020
2022
2022
2024
2026
2028
2028
2029
2028
2025
2025
2022
2021
2018
2018
2019
2020
2019
2019
2019
2019
2020
2024
2028
2034
2038
2043
2048
2054
2056
2061
2064
2066
2066
2068
2068
2068
2066
2066
2066
2064
2064
2064
2065
2066
2068
2070
2075
2078
2082
2085
2086
2086
2085
2083
2080
2076
2072
2072
2071
2071
2073
2074
2079
2081
2084
2088
2090
2093
2096
2097
2101
2101
2101
2100
2101
2099
2099
2101
2105
2108
2110
2114
2116
2120
2120
2124
2126
2129
2129
2132
2134
2136
2139
2142
2145
2148
2150
2150
2151
2150
2150
2151
2152
2153
2154
2156
2158
2160
2162
2164
2167
2170
2172
2176
2180
2184
2188
2190
2194
2196
2197
2199
2202
2206
2208
2210
2214
2220
2224
2228
2234
2238
2242
2245
2249
2252
2257
2262
2269
2275
2280
2285
2291
2297
2301
2307
2314
2320
2326
2332
2336
2340
2342
2346
2350
2355
2362
2365
2372
2376
2382
2388
2397
2405
2414
2426
2437
2447
2454
2462
2470
2474
2480
2485
2490
2495
2500
2507
2514
2519
2525
2532
2540
2546
2552
2560
2568
2573
2578
2584
2592
2598
2606
2615
2624
2630
2634
2638
2643
2646
2647
2647
2649
2650
2654
2657
2662
2666
2670
2676
2681
2685
2688
2688
2690
2689
2686
2684
2682
2677
2674
2671
2666
2662
2654
2646
2639
2628
2617
2606
2596
2584
2571
2556
2539
2520
2502
2482
2463
2442
2423
2405
2388
2370
2354
2339
2325
2310
2294
2277
2261
2244
2224
2206
2190
2172
2156
2140
2124
2108
2092
2080
2069
2058
2046
2037
2028
2019
2009
2000
1993
1985
1975
1968
1961
1956
1951
1945
1941
1936
1932
1925
1921
1916
1908
1904
1902
1899
1895
1892
1891
1889
1884
1881
1880
1879
1878
1879
1880
1882
1882
1883
1883
1880
1880
1878
1880
1884
1883
1884
1886
1885
1882
1881
1878
1874
1871
1865
1861
1858
1854
1853
1855
1856
1859
1860
1862
1863
1863
1864
1865
1866
1865
1866
1870
1870
1871
1872
1874
1874
1874
1874
1875
1876
1877
1878
1881
1883
1885
1885
1888
1889
1889
1887
1886
1884
1880
1880
1880
1878
1879
1882
1885
1889
1890
1892
1893
1893
1892
1894
1894
1894
1895
1896
1897
1898
1896
1895
1895
1892
1893
1893
1895
1896
1897
1898
1900
1901
1903
1905
1907
1906
1904
1901
1898
1895
1892
1891
1891
1891
1892
1894
1896
1898
1899
1899
1900
1900
1900
1898
1899
1897
1894
1890
1889
1885
1885
1884
1883
1884
1885
1887
1889
1892
1893
1896
1898
1902
1904
1907
1910
1913
1914
1912
1912
1910
1909
1906
1906
1905
1902
1900
1897
1897
1894
1892
1892
1891
1891
1891
1892
1893
1891
1891
1890
1889
1886
1886
1886
1884
1885
1885
1890
1890
1892
1891
1895
1898
1899
1900
1902
1903
1902
1904
1906
1907
1907
1906
1907
1908
1909
1909
1908
1909
1908
1908
1909
1908
1906
1906
1906
1906
1905
1904
1905
1905
1904
1903
1904
1903
1901
1902
1900
1902
1903
1903
1904
1905
1903
1904
1904
1905
1902
1903
1903
1903
1903
1904
1909
1912
1915
1921
1924
1927
1929
1930
1931
1929
1926
1924
1921
1917
1912
1910
1906
1902
1902
1903
1907
1909
1912
1915
1919
1922
1925
1925
1928
1928
1927
1928
1928
1928
1927
1928
1931
1933
1934
1935
1938
1937
1938
1939
1942
1942
1942
1942
1943
1946
1945
1946
1946
1947
1948
1947
1948
1948
1949
1949
1950
1951
1948
1946
1944
1941
1938
1936
1935
1935
1936
1938
1940
1940
1940
1940
1941
1937
1934
1932
1936
1940
1942
1944
1946
1946
1949
1948
1946
1943
1940
1938
1941
1944
1947
1952
1957
1958
1957
1956
1955
1950
1944
1941
1938
1937
1936
1936
1935
1933
1928
1927
1925
1925
1929
1938
1951
1964
1973
1980
1985
1986
1983
1981
1978
1975
1970
1966
1962
1960
1959
1958
1959
1960
1960
1960
1963
1964
1965
1965
1965
1965
1964
1964
1965
1967
1967
1970
1972
1974
1977
1980
1985
1988
1990
1991
1992
1994
1995
1996
2000
2002
2002
2002
2005
2007
2005
2004
2005
2004
2005
2007
2008
2011
2010
2010
2008
2007
2005
2005
2007
2009
2013
2019
2028
2041
2056
2071
2087
2103
2117
2129
2140
2149
2157
2162
2170
2176
2178
2180
2181
2180
2176
2170
2166
2160
2154
2146
2138
2128
2118
2110
2105
2101
2097
2096
2096
2098
2097
2098
2100
2100
2099
2098
2098
2098
2095
2092
2089
2086
2084
2080
2077
2073
2068
2063
2057
2050
2041
2036
2029
2020
2011
2004
1995
1988
1981
1975
1969
1963
1958
1952
1950
1948
1948
1951
1954
1957
1959
1963
1968
1971
1973
1973
1975
1973
1972
1970
1972
1972
1972
1973
1973
1974
1973
1972
1973
1973
1972
1972
1973
1972
1968
1964
1962
1956
1952
1949
1949
1947
1948
1950
1953
1954
1956
1960
1967
1975
1984
1997
2013
2027
2052
2080
2110
2141
2174
2208
2245
2283
2320
2354
2384
2408
2427
2441
2450
2451
2444
2430
2410
2381
2342
2293
2234
2167
2087
1997
1902
1800
1695
1590
1497
1412
1342
1292
1261
1249
1251
1270
1304
1344
1393
1444
1498
1552
1603
1656
1710
1765
1817
1868
1914
1951
1983
2009
2027
2038
2042
2049
2033
2023
2010
1999
1989
1982
1977
1973
1973
1974
1978
1982
1987
1990
1992
1994
1994
1994
1998
2003
2006
2010
2013
2016
2019
2022
2022
2024
2024
2028
2029
2032
2035
2035
2034
2033
2031
2028
2026
2024
2022
2022
2020
2018
2020
2022
2023
2027
2032
2039
2045
2052
2057
2058
2057
2057
2056
2054
2051
2051
2049
2050
2050
2049
2050
2051
2051
2053
2055
2057
2060
2064
2069
2073
2075
2076
2076
2076
2076
2074
2074
2073
2072
2075
2076
2083
2084
2088
2093
2096
2100
2102
2104
2102
2100
2096
2094
2092
2091
2091
2091
2093
2095
2098
2102
2104
2108
2110
2114
2118
2124
2126
2128
2129
2126
2125
2124
2123
2122
2122
2124
2126
2124
2128
2125
2136
2140
2147
2154
2160
2162
2164
2166
2167
2168
2169
2171
2174
2176
2176
2179
2180
2182
2184
2188
2190
2194
2198
2205
2210
2214
2220
2227
2230
2234
2236
2241
2244
2246
2250
2254
2258
2260
2265
2269
2274
2278
2283
2288
2292
2298
2304
2310
2317
2323
2330
2340
2346
2351
2356
2361
2367
2370
2374
2380
2382
2386
2392
2397
2405
2415
2427
2440
2450
2462
2471
2478
2485
2489
2495
2502
2507
2512
2517
2520
2527
2534
2542
2551
2561
2570
2577
2582
2588
2592
2598
2602
2606
2609
2610
2611
2613
2616
2618
2623
2627
2630
2635
2638
2642
2644
2645
2646
2647
2647
2648
2649
2649
2647
2646
2644
2640
2632
2626
2618
2610
2604
2596
2590
2581
2571
2558
2544
2526
2508
2488
2472
2456
2438
2418
2400
2379
2360
2340
2322
2304
2287
2271
2259
2245
2231
2216
2202
2186
2171
2156
2141
2126
2113
2103
2092
2080
2068
2059
2049
2035
2023
2012
2002
1991
1982
1975
1969
1960
1954
1949
1945
1938
1933
1928
1923
1916
1908
1902
1897
1892
1888
1885
1881
1878
1876
1874
1871
1871
1870
1868
1867
1865
1863
1861
1861
1860
1858
1854
1854
1854
1853
1854
1858
1862
1865
1868
1869
1872
1869
1868
1866
1862
1859
1857
1854
1853
1849
1846
1845
1844
1841
1842
1843
1846
1850
1852
1858
1859
1858
1858
1858
1858
1857
1858
1863
1866
1867
1867
1868
1868
1868
1868
1871
1873
1877
1879
1882
1882
1881
1877
1875
1873
1872
1869
1866
1867
1866
1868
1870
1872
1876
1878
1882
1885
1886
1886
1886
1885
1882
1880
1879
1878
1878
1878
1878
1878
1878
1880
1883
1886
1889
1891
1893
1895
1895
1897
1899
1901
1901
1902
1903
1904
1904
1903
1903
1903
1901
1901
1901
1899
1899
1896
1896
1895
1896
1896
1898
1898
1899
1899
1899
1896
1896
1895
1894
1892
1887
1886
1885
1882
1882
1884
1888
1893
1895
1898
1901
1907
1908
1910
1912
1914
1912
1911
1908
1905
1900
1896
1894
1892
1892
1892
1894
1895
1895
1897
1901
1902
1902
1902
1902
1901
1900
1900
1901
1901
1900
1902
1905
1906
1908
1908
1908
1908
1908
1908
1910
1910
1910
1909
1909
1907
1904
1904
1904
1904
1901
1901
1902
1903
1905
1906
1907
1908
1907
1907
1910
1912
1913
1916
1919
1917
1915
1911
1908
1904
1903
1902
1905
1905
1906
1908
1910
1912
1911
1914
1915
1918
1919
1921
1923
1924
1921
1919
1917
1916
1916
1915
1917
1916
1917
1917
1918
1921
1921
1922
1924
1926
1929
1930
1932
1934
1932
1930
1929
1927
1926
1924
1923
1921
1918
1918
1921
1922
1924
1926
1928
1931
1936
1941
1947
1951
1954
1955
1954
1952
1946
1942
1939
1938
1936
1938
1941
1943
1942
1943
1945
1943
1941
1937
1933
1930
1930
1931
1931
1935
1938
1941
1945
1949
1951
1955
1959
1961
1962
1962
1963
1965
1964
1963
1962
1960
1957
1955
1954
1954
1954
1953
1956
1956
1957
1955
1954
1955
1952
1953
1956
1957
1956
1957
1956
1953
1952
1950
1947
1945
1945
1945
1947
1951
1956
1961
1967
1972
1976
1979
1981
1985
1986
1988
1986
1986
1983
1980
1978
1975
1970
1966
1963
1963
1962
1964
1969
1972
1972
1974
1975
1975
1974
1976
1976
1974
1970
1968
1964
1962
1960
1961
1962
1964
1965
1965
1967
1969
1970
1972
1975
1978
1981
1984
1988
1991
1992
1992
1991
1991
1988
1988
1988
1989
1988
1987
1986
1984
1983
1982
1983
1984
1986
1988
1990
1993
1995
2000
2003
2005
2010
2013
2017
2019
2021
2022
2024
2026
2026
2023
2022
2018
2014
2008
2006
2002
2000
2000
2004
2010
2017
2029
2045
2062
2081
2098
2118
2135
2151
2166
2179
2192
2201
2205
2208
2208
2203
2200
2196
2191
2186
2178
2174
2165
2157
2150
2142
2134
2128
2125
2123
2120
2118
2116
2116
2112
2108
2104
2102
2102
2100
2100
2101
2100
2099
2098
2097
2094
2092
2088
2086
2083
2078
2073
2066
2056
2045
2034
2023
2010
1998
1986
1975
1965
1956
1951
1948
1946
1946
1947
1950
1951
1953
1956
1959
1963
1966
1968
1972
1972
1974
1975
1976
1977
1975
1975
1972
1970
1968
1971
1974
1977
1977
1980
1980
1980
1978
1975
1972
1969
1964
1959
1954
1954
1955
1958
1962
1965
1966
1966
1967
1970
1973
1982
1992
2005
2019
2039
2066
2094
2125
2158
2194
2231
2270
2313
2356
2398
2434
2464
2488
2507
2519
2526
2526
2514
2492
2460
2423
2375
2318
2254
2183
2102
2015
1925
1834
1739
1648
1565
1497
1442
1407
1389
1387
1398
1420
1450
1488
1530
1575
1620
1667
1716
1762
1810
1859
1902
1942
1973
2000
2023
2038
2051
2054
2050
2042
2029
2015
2000
1984
1969
1959
1951
1948
1948
1952
1959
1966
1974
1982
1985
1990
1993
1998
2000
2001
2003
2004
2007
2008
2008
2010
2008
2007
2005
2004
2004
2004
2005
2008
2010
2013
2017
2020
2019
2020
2020
2021
2022
2023
2026
2029
2031
2033
2034
2033
2035
2037
2039
2044
2050
2053
2058
2060
2061
2060
2059
2056
2052
2046
2044
2045
2046
2049
2052
2056
2059
2062
2068
2074
2078
2082
2084
2086
2086
2084
2082
2083
2082
2084
2089
2090
2090
2091
2092
2093
2092
2090
2089
2090
2089
2089
2088
2086
2086
2086
2087
2088
2091
2091
2093
2096
2098
2101
2104
2108
2112
2115
2118
2123
2126
2129
2133
2136
2138
2139
2138
2140
2139
2138
2137
2138
2140
2142
2145
2149
2155
2159
2162
2166
2169
2170
2172
2172
2172
2172
2176
2179
2184
2192
2198
2204
2209
2212
2213
2212
2213
2214
2215
2220
2225
2230
2236
2241
2246
2250
2255
2258
2260
2262
2262
2264
2265
2268
2272
2280
2290
2300
2310
2318
2326
2332
2337
2339
2340
2342
2344
2349
2353
2357
2364
2371
2380
2389
2398
2407
2416
2425
2435
2443
2450
2455
2460
2466
2472
2476
2481
2488
2492
2499
2504
2510
2518
2524
2530
2537
2544
2550
2556
2564
2569
2576
2580
2584
2588
2592
2596
2599
2603
2607
2609
2614
2618
2624
2627
2634
2637
2640
2642
2643
2642
2640
2638
2636
2630
2626
2622
2618
2612
2606
2600
2593
2586
2580
2572
2562
2550
2537
2524
2511
2495
2481
2465
2447
2428
2408
2390
2373
2355
2338
2324
2309
2292
2276
2264
2250
2235
2221
2205
2190
2176
2157
2141
2124
2109
2092
2080
2067
2056
2044
2036
2028
2023
2018
2013
2007
2003
1997
1992
1986
1979
1968
1960
1951
1944
1937
1930
1924
1919
1913
1908
1904
1901
1899
1897
1897
1895
1894
1892
1892
1894
1893
1893
1892
1892
1890
1888
1885
1879
1874
1868
1866
1865
1866
1867
1870
1872
1872
1874
1874
1873
1873
1871
1872
1870
1870
1869
1871
1873
1876
1877
1879
1879
1879
1880
1880
1881
1880
1880
1881
1882
1882
1880
1879
1879
1880
1877
1878
1880
1881
1883
1887
1892
1896
1901
1904
1906
1907
1908
1910
1910
1908
1909
1907
1907
1904
1903
1902
1900
1899
1900
1901
1903
1903
1908
1909
1912
1913
1915
1918
1919
1919
1922
1923
1925
1924
1922
1919
1917
1914
1913
1913
1913
1914
1915
1915
1915
1915
1916
1916
1916
1919
1918
1920
1919
1919
1918
1919
1919
1919
1922
1924
1924
1925
1925
1926
1929
1930
1931
1932
1932
1930
1929
1927
1925
1924
1924
1924
1925
1925
1925
1926
1927
1928
1930
1932
1933
1933
1934
1936
1936
1936
1935
1938
1938
1938
1937
1936
1934
1930
1930
1932
1932
1935
1937
1939
1943
1945
1944
1945
1944
1944
1942
1942
1941
1940
1939
1939
1938
1937
1935
1935
1934
1932
1933
1933
1937
1938
1941
1942
1943
1942
1942
1941
1938
1934
1933
1932
1930
1928
1927
1926
1927
1928
1930
1935
1940
1942
1944
1945
1944
1940
1937
1934
1930
1929
1928
1928
1928
1927
1926
1927
1929
1930
1934
1940
1943
1943
1945
1946
1945
1943
1941
1939
1938
1934
1933
1931
1933
1934
1936
1936
1936
1936
1937
1940
1943
1945
1944
1946
1945
1943
1944
1947
1948
1948
1948
1950
1949
1947
1944
1943
1942
1942
1943
1944
1944
1944
1943
1944
1946
1946
1945
1946
1943
1940
1940
1941
1942
1943
1944
1947
1946
1947
1948
1952
1956
1961
1966
1972
1977
1978
1979
1978
1976
1973
1969
1966
1964
1961
1960
1961
1960
1958
1958
1958
1958
1958
1961
1961
1961
1958
1955
1954
1951
1950
1949
1950
1952
1951
1951
1953
1954
1953
1951
1950
1947
1948
1947
1951
1952
1953
1955
1956
1959
1960
1961
1963
1963
1963
1961
1962
1962
1963
1962
1963
1965
1966
1969
1973
1974
1974
1975
1977
1976
1978
1978
1979
1977
1973
1971
1970
1967
1965
1965
1969
1973
1976
1980
1983
1983
1985
1986
1987
1987
1986
1984
1982
1979
1978
1977
1975
1974
1972
1972
1974
1975
1976
1978
1980
1981
1983
1985
1985
1983
1982
1980
1979
1976
1974
1972
1971
1971
1970
1970
1971
1971
1970
1972
1973
1975
1975
1977
1978
1980
1980
1980
1981
1982
1981
1983
1983
1983
1982
1982
1981
1982
1985
1989
1992
1995
1996
1999
2002
2004
2002
2002
2001
1997
1993
1992
1992
1992
1995
1997
1999
2002
2005
2008
2011
2013
2013
2014
2015
2015
2015
2017
2016
2018
2020
2021
2025
2028
2030
2034
2037
2039
2038
2039
2040
2041
2039
2039
2040
2040
2039
2039
2037
2034
2031
2028
2027
2028
2031
2037
2049
2062
2076
2092
2109
2126
2141
2156
2170
2182
2191
2197
2203
2206
2206
2208
2206
2203
2199
2192
2186
2180
2172
2167
2161
2152
2144
2135
2128
2122
2116
2112
2109
2112
2111
2110
2112
2112
2112
2112
2110
2109
2110
2110
2110
2110
2106
2102
2098
2093
2087
2082
2076
2069
2062
2052
2042
2032
2022
2010
1999
1988
1979
1974
1970
1967
1964
1962
1963
1963
1965
1967
1970
1972
1973
1974
1974
1975
1976
1978
1981
1985
1988
1991
1995
1997
1995
1992
1991
1988
1987
1984
1984
1983
1980
1976
1974
1971
1969
1968
1968
1968
1967
1967
1969
1972
1971
1970
1967
1964
1962
1962
1964
1968
1972
1981
1994
2009
2030
2059
2094
2133
2176
2224
2275
2326
2378
2427
2472
2509
2538
2562
2583
2600
2604
2603
2587
2561
2524
2479
2427
2368
2300
2229
2152
2073
1988
1902
1814
1728
1652
1586
1537
1503
1485
1481
1488
1505
1530
1561
1600
1641
1685
1733
1779
1826
1871
1914
1951
1983
2007
2022
2031
2036
2034
2028
2020
2008
1998
1985
1974
1966
1958
1952
1952
1953
1956
1959
1964
1968
1973
1977
1981
1986
1988
1990
1995
1997
1999
1999
1999
1999
1997
1996
1996
1994
1992
1990
1989
1988
1987
1988
1991
1993
1997
1998
2002
2005
2005
2009
2012
2013
2014
2014
2017
2018
2018
2020
2021
2020
2019
2018
2016
2015
2015
2018
2023
2026
2030
2033
2039
2041
2043
2042
2043
2044
2042
2041
2039
2038
2035
2036
2036
2036
2037
2039
2045
2050
2054
2058
2063
2068
2072
2077
2081
2084
2084
2082
2082
2080
2076
2072
2072
2073
2073
2074
2080
2080
2080
2080
2080
2082
2084
2090
2095
2098
2100
2104
2105
2107
2107
2108
2110
2109
2108
2110
2112
2113
2116
2120
2123
2128
2130
2132
2135
2137
2137
2136
2136
2138
2139
2139
2142
2143
2144
2144
2149
2152
2156
2161
2165
2170
2174
2178
2184
2187
2192
2195
2199
2200
2202
2204
2208
2211
2214
2217
2221
2226
2232
2238
2242
2246
2251
2256
2260
2266
2270
2276
2282
2286
2289
2290
2295
2299
2304
2308
2314
2319
2321
2325
2332
2337
2348
2358
2368
2378
2387
2396
2406
2414
2420
2424
2430
2434
2440
2444
2449
2455
2461
2466
2476
2482
2487
2492
2497
2504
2512
2517
2524
2531
2536
2539
2542
2546
2550
2554
2560
2565
2571
2577
2582
2588
2592
2596
2597
2599
2600
2603
2604
2604
2606
2606
2609
2608
2608
2607
2609
2610
2612
2610
2608
2601
2590
2580
2567
2553
2540
2528
2516
2504
2494
2484
2472
2457
2444
2431
2417
2402
2387
2371
2354
2336
2320
2300
2283
2265
2246
2228
2211
2194
2176
2160
2147
2134
2120
2108
2098
2088
2077
2067
2058
2049
2039
2031
2022
2010
1998
1986
1976
1966
1958
1948
1940
1932
1924
1916
1908
1903
1896
1893
1891
1890
1886
1884
1882
1879
1876
1873
1873
1870
1867
1865
1865
1863
1862
1863
1866
1865
1865
1867
1869
1870
1869
1869
1867
1867
1862
1862
1859
1857
1853
1854
1851
1850
1849
1847
1848
1847
1846
1846
1846
1848
1850
1853
1856
1860
1862
1865
1868
1867
1864
1861
1858
1858
1855
1854
1854
1855
1856
1856
1860
1863
1864
1867
1870
1871
1871
1872
1872
1872
1871
1870
1869
1870
1870
1872
1876
1879
1879
1878
1878
1878
1878
1877
1878
1879
1879
1878
1880
1880
1880
1882
1879
1876
1875
1872
1872
1871
1873
1877
1884
1889
1897
1902
1906
1908
1907
1905
1906
1905
1904
1900
1900
1898
1896
1896
1896
1896
1896
1898
1900
1901
1902
1901
1902
1900
1897
1896
1899
1899
1901
1902
1904
1905
1906
1906
1906
1906
1906
1906
1907
1908
1909
1910
1913
1914
1915
1915
1914
1913
1910
1909
1907
1905
1904
1902
1904
1904
1907
1909
1910
1914
1915
1918
1919
1921
1922
1921
1919
1915
1909
1905
1903
1900
1898
1899
1898
1898
1898
1898
1901
1903
1906
1909
1912
1914
1915
1913
1913
1912
1912
1910
1911
1909
1908
1908
1908
1908
1907
1908
1911
1912
1911
1910
1912
1913
1914
1914
1916
1916
1916
1916
1913
1911
1907
1907
1906
1905
1904
1906
1909
1911
1913
1916
1919
1923
1923
1926
1926
1927
1924
1924
1924
1924
1924
1926
1927
1927
1928
1927
1925
1922
1920
1919
1921
1921
1920
1924
1925
1926
1925
1924
1923
1921
1919
1918
1919
1920
1922
1924
1927
1927
1930
1932
1932
1934
1933
1933
1935
1933
1930
1927
1926
1924
1921
1921
1924
1926
1929
1932
1935
1937
1941
1944
1948
1951
1955
1957
1959
1958
1953
1950
1947
1945
1941
1937
1936
1933
1932
1932
1933
1934
1934
1937
1939
1942
1944
1946
1948
1950
1948
1947
1946
1944
1941
1941
1940
1941
1939
1942
1943
1946
1947
1950
1954
1954
1953
1951
1951
1951
1950
1949
1951
1951
1951
1950
1950
1950
1952
1954
1956
1959
1961
1962
1962
1962
1961
1962
1964
1965
1964
1965
1965
1964
1962
1960
1959
1960
1961
1962
1965
1967
1968
1970
1972
1974
1975
1974
1974
1971
1966
1963
1961
1958
1955
1954
1955
1958
1962
1967
1972
1976
1980
1986
1989
1991
1991
1991
1989
1985
1982
1976
1972
1967
1964
1962
1963
1962
1961
1962
1965
1966
1969
1970
1974
1977
1979
1982
1983
1986
1985
1986
1986
1987
1986
1986
1987
1986
1984
1985
1986
1984
1983
1984
1986
1988
1988
1989
1992
1995
1997
1997
1998
1997
1996
1994
1994
1995
1994
1994
1994
1994
1994
1994
1996
1997
1998
2000
2002
2002
2000
1997
1995
1993
1989
1988
1988
1988
1989
1990
1992
1992
1995
1996
2000
2002
2004
2005
2008
2010
2009
2009
2008
2006
2002
1998
1997
1995
1993
1994
1997
1999
2003
2007
2008
2009
2010
2010
2010
2011
2009
2009
2009
2009
2007
2007
2004
2002
1998
1998
1998
1996
1997
1997
1999
2001
2002
2002
2003
2004
2004
2005
2006
2006
2006
2007
2007
2007
2006
2006
2005
2004
2002
2000
2002
2004
2004
2007
2009
2012
2014
2015
2017
2017
2015
2014
2012
2010
2008
2007
2007
2010
2011
2015
2021
2025
2027
2029
2033
2036
2037
2039
2041
2044
2045
2046
2050
2053
2056
2060
2064
2069
2073
2078
2083
2088
2090
2090
2091
2089
2086
2084
2081
2080
2080
2085
2095
2108
2124
2143
2164
2185
2206
2226
2242
2254
2264
2271
2274
2272
2263
2252
2237
2221
2205
2189
2174
2159
2146
2136
2131
2128
2127
2128
2128
2133
2135
2139
2142
2144
2144
2146
2143
2141
2135
2130
2124
2118
2112
2104
2099
2092
2086
2084
2082
2084
2082
2084
2080
2078
2072
2064
2057
2043
2033
2021
2012
2000
1992
1985
1982
1979
1977
1977
1977
1979
1981
1983
1986
1990
1990
1989
1990
1990
1989
1991
1992
1992
1992
1991
1993
1993
1994
1992
1993
1993
1993
1992
1992
1991
1988
1987
1985
1983
1984
1985
1985
1983
1979
1977
1973
1972
1970
1968
1970
1970
1971
1972
1976
1978
1981
1988
1999
2012
2028
2055
2090
2130
2176
2228
2283
2341
2397
2452
2500
2540
2574
2602
2628
2649
2661
2664
2656
2636
2599
2550
2495
2430
2358
2280
2200
2115
2029
1940
1851
1764
1680
1608
1552
1512
1490
1482
1488
1504
1528
1558
1595
1636
1682
1731
1781
1831
1878
1921
1958
1988
2009
2022
2029
2028
2022
2017
2010
2002
1993
1983
1977
1971
1967
1962
1963
1964
1965
1968
1973
1979
1982
1988
1992
1997
1998
1999
2002
2001
2000
2001
2000
1999
1996
1994
1993
1991
1988
1988
1989
1991
1992
1996
2001
2006
2012
2019
2025
2029
2029
2026
2026
2022
2020
2017
2016
2016
2015
2017
2019
2020
2020
2020
2023
2024
2025
2028
2034
2036
2038
2039
2041
2042
2046
2048
2050
2053
2056
2052
2060
2060
2062
2065
2067
2069
2068
2070
2072
2072
2073
2072
2075
2073
2073
2073
2076
2078
2080
2082
2086
2087
2088
2088
2088
2085
2084
2083
2084
2085
2084
2085
2086
2087
2087
2089
2091
2093
2094
2097
2099
2101
2102
2104
2105
2107
2108
2112
2115
2120
2122
2126
2132
2137
2140
2145
2149
2154
2158
2160
2163
2163
2164
2165
2165
2164
2163
2161
2161
2162
2165
2170
2176
2182
2189
2195
2200
2205
2209
2212
2215
2216
2215
2216
2218
2220
2223
2226
2228
2230
2232
2238
2243
2249
2256
2262
2272
2280
2289
2298
2308
2314
2318
2322
2326
2329
2330
2334
2339
2341
2343
2349
2356
2363
2370
2378
2388
2396
2406
2414
2422
2429
2436
2441
2446
2450
2456
2463
2471
2478
2486
2493
2501
2509
2516
2522
2530
2536
2542
2548
2558
2566
2574
2580
2584
2587
2590
2595
2599
2604
2609
2615
2622
2626
2630
2634
2640
2645
2649
2654
2658
2664
2665
2667
2668
2670
2670
2671
2669
2666
2661
2655
2649
2642
2636
2629
2624
2617
2610
2604
2598
2592
2584
2576
2563
2549
2530
2513
2493
2474
2454
2436
2418
2402
2384
2368
2353
2338
2322
2306
2290
2274
2256
2239
2225
2209
2193
2178
2164
2149
2135
2120
2109
2097
2086
2076
2066
2058
2050
2042
2037
2029
2022
2014
2004
1994
1982
1970
1960
1949
1939
1932
1928
1922
1917
1913
1911
1906
1902
1901
1901
1898
1897
1895
1895
1892
1890
1887
1886
1883
1881
1878
1878
1877
1874
1873
1873
1876
1876
1879
1879
1880
1879
1881
1881
1880
1878
1874
1872
1870
1870
1870
1872
1874
1876
1878
1883
1884
1887
1891
1894
1895
1893
1891
1891
1887
1885
1881
1879
1877
1874
1874
1874
1874
1874
1876
1880
1883
1885
1888
1890
1891
1890
1890
1887
1886
1881
1877
1875
1875
1876
1879
1884
1885
1888
1889
1893
1894
1896
1899
1905
1911
1913
1915
1919
1919
1917
1914
1908
1903
1900
1896
1895
1894
1892
1893
1894
1897
1899
1901
1903
1907
1910
1915
1919
1922
1923
1922
1923
1922
1921
1921
1922
1924
1923
1926
1927
1928
1927
1929
1932
1935
1937
1940
1941
1942
1942
1941
1940
1937
1934
1932
1928
1923
1918
1917
1916
1918
1921
1925
1928
1930
1929
1931
1932
1935
1938
1941
1942
1942
1943
1942
1944
1945
1942
1940
1939
1938
1935
1933
1934
1936
1936
1938
1939
1941
1941
1942
1944
1943
1941
1937
1937
1934
1935
1937
1940
1942
1943
1942
1941
1941
1941
1942
1942
1942
1940
1938
1938
1937
1935
1936
1938
1937
1936
1936
1940
1944
1946
1950
1953
1956
1956
1955
1954
1950
1946
1943
1941
1937
1936
1934
1934
1933
1933
1934
1935
1938
1942
1946
1950
1952
1954
1953
1953
1952
1949
1948
1948
1945
1941
1940
1939
1937
1937
1936
1938
1944
1940
1941
1944
1947
1950
1952
1955
1957
1958
1957
1958
1956
1954
1954
1955
1956
1954
1954
1955
1956
1955
1955
1958
1959
1960
1960
1963
1963
1960
1958
1959
1959
1958
1957
1956
1954
1952
1953
1954
1955
1954
1957
1957
1959
1959
1961
1966
1969
1969
1969
1968
1968
1964
1962
1960
1957
1956
1956
1959
1963
1966
1970
1973
1977
1978
1979
1979
1978
1976
1975
1975
1974
1969
1969
1969
1968
1968
1970
1973
1975
1976
1978
1979
1979
1978
1979
1978
1977
1975
1971
1967
1964
1964
1966
1967
1968
1968
1972
1976
1980
1983
1986
1990
1992
1992
1991
1987
1983
1979
1976
1975
1973
1969
1966
1964
1965
1966
1969
1976
1981
1983
1985
1988
1988
1988
1987
1987
1985
1985
1985
1986
1988
1986
1985
1983
1979
1977
1975
1973
1972
1968
1969
1970
1973
1976
1979
1982
1986
1990
1992
1995
1998
1998
2000
2001
2001
1999
1998
1997
1998
1997
1999
2001
2000
2000
1998
1996
1994
1991
1990
1989
1990
1990
1989
1990
1990
1986
1988
1988
1987
1985
1983
1983
1983
1983
1985
1986
1987
1988
1990
1993
1991
1989
1989
1988
1988
1988
1988
1989
1991
1991
1992
1993
1993
1991
1991
1992
1992
1992
1994
1997
1997
1995
1994
1994
1997
1997
1996
1996
1995
1992
1991
1992
1992
1993
1996
2001
2004
2004
2004
2004
2004
2005
2007
2010
2011
2011
2010
2010
2008
2006
2006
2006
2007
2008
2010
2009
2006
2004
2001
2001
2001
2001
2000
2000
2001
2001
2002
2003
2001
2001
2002
2005
2007
2009
2012
2014
2016
2015
2014
2012
2010
2008
2006
2006
2006
2005
2004
2006
2006
2006
2008
2009
2011
2014
2014
2015
2014
2010
2007
2005
2002
2003
2002
2004
2004
2003
2004
2005
2008
2013
2018
2025
2030
2035
2038
2041
2042
2042
2039
2038
2038
2038
2041
2045
2050
2053
2059
2064
2070
2072
2076
2078
2080
2080
2080
2081
2080
2082
2082
2085
2089
2097
2107
2122
2138
2154
2171
2188
2206
2222
2235
2246
2253
2255
2256
2253
2247
2238
2226
2215
2203
2190
2176
2166
2153
2143
2135
2130
2128
2126
2125
2126
2127
2131
2133
2138
2144
2145
2146
2144
2140
2134
2128
2123
2116
2112
2108
2105
2102
2099
2098
2097
2092
2086
2080
2071
2062
2051
2038
2028
2020
2012
2004
1998
1990
1983
1978
1974
1969
1966
1964
1966
1966
1967
1970
1972
1972
1972
1974
1978
1979
1981
1983
1986
1987
1989
1993
1998
2001
2000
1999
1998
1995
1994
1994
1995
1996
1996
1996
1994
1991
1987
1983
1980
1975
1972
1969
1969
1970
1973
1975
1976
1977
1977
1979
1981
1987
1993
2001
2014
2029
2044
2066
2094
2123
2159
2196
2235
2275
2314
2356
2392
2425
2451
2473
2493
2508
2518
2522
2518
2506
2484
2454
2416
2369
2312
2245
2170
2085
1992
1890
1785
1677
1574
1478
1399
1340
1301
1284
1286
1305
1338
1382
1433
1490
1546
1605
1661
1717
1773
1829
1884
1932
1974
2010
2040
2062
2076
2084
2084
2078
2067
2052
2034
2017
2000
1988
1983
1975
1974
1976
1981
1983
1988
1996
2004
2012
2019
2024
2027
2029
2030
2031
2031
2031
2030
2028
2028
2028
2028
2028
2031
2036
2041
2045
2051
2052
2054
2055
2056
2056
2056
2054
2053
2050
2050
2049
2050
2050
2050
2050
2052
2053
2052
2053
2055
2055
2057
2060
2061
2064
2064
2066
2068
2070
2072
2074
2078
2080
2084
2087
2088
2091
2092
2091
2090
2088
2083
2080
2077
2075
2072
2070
2068
2070
2073
2078
2084
2090
2093
2098
2102
2106
2110
2112
2115
2116
2117
2118
2116
2116
2114
2112
2114
2116
2118
2118
2120
2121
2124
2126
2130
2133
2136
2138
2140
2139
2138
2137
2136
2138
2136
2136
2138
2138
2139
2141
2146
2148
2152
2156
2161
2164
2165
2169
2170
2172
2173
2172
2174
2174
2174
2176
2179
2183
2185
2185
2196
2199
2200
2204
2208
2211
2216
2221
2228
2235
2239
2245
2251
2256
2260
2262
2264
2262
2264
2264
2266
2267
2268
2270
2272
2276
2284
2291
2300
2309
2316
2325
2334
2343
2348
2355
2362
2369
2375
2382
2388
2393
2396
2400
2405
2410
2418
2425
2434
2442
2452
2464
2474
2483
2490
2498
2505
2512
2516
2523
2529
2533
2539
2542
2548
2553
2560
2564
2569
2574
2580
2585
2592
2598
2601
2603
2607
2608
2610
2612
2614
2614
2617
2622
2626
2630
2634
2636
2637
2636
2634
2630
2630
2631
2632
2634
2637
2636
2633
2632
2630
2626
2621
2612
2599
2583
2566
2549
2535
2520
2506
2491
2476
2460
2445
2427
2411
2393
2374
2357
2340
2324
2306
2288
2272
2254
2237
2221
2205
2190
2173
2159
2144
2132
2120
2108
2099
2088
2077
2065
2053
2039
2025
2013
2002
1993
1983
1974
1968
1959
1952
1944
1936
1927
1918
1909
1902
1899
1892
1887
1881
1876
1870
1869
1868
1869
1869
1870
1872
1872
1871
1870
1867
1862
1858
1855
1853
1851
1849
1848
1846
1844
1844
1842
1843
1844
1846
1848
1853
1854
1857
1860
1862
1862
1860
1858
1857
1853
1850
1848
1846
1845
1844
1844
1845
1845
1845
1846
1850
1851
1853
1855
1856
1857
1855
1854
1854
1853
1854
1854
1857
1858
1860
1861
1864
1866
1868
1870
1872
1872
1870
1870
1872
1870
1869
1867
1864
1863
1859
1858
1859
1860
1862
1866
1873
1877
1879
1880
1883
1881
1878
1874
1871
1866
1864
1862
1862
1863
1861
1861
1860
1862
1862
1866
1868
1873
1876
1879
1883
1885
1887
1889
1893
1892
1892
1889
1888
1887
1884
1883
1881
1881
1881
1883
1886
1891
1894
1897
1902
1902
1903
1901
1900
1898
1896
1894
1892
1891
1890
1891
1894
1896
1899
1904
1908
1911
1913
1914
1917
1917
1915
1910
1907
1901
1893
1890
1886
1882
1882
1882
1886
1890
1895
1900
1905
1907
1907
1908
1910
1908
1907
1904
1902
1898
1896
1896
1898
1901
1902
1901
1903
1903
1904
1904
1905
1905
1904
1903
1903
1902
1901
1901
1901
1902
1902
1902
1902
1899
1896
1894
1894
1894
1895
1895
1897
1900
1902
1904
1902
1902
1902
1903
1907
1908
1909
1910
1910
1909
1909
1906
1907
1908
1910
1914
1919
1922
1922
1924
1926
1927
1922
1920
1918
1917
1916
1916
1918
1919
1918
1916
1911
1908
1905
1902
1903
1907
1910
1914
1918
1921
1923
1923
1925
1925
1924
1924
1924
1922
1919
1917
1914
1912
1910
1908
1909
1909
1910
1910
1910
1911
1913
1916
1919
1923
1925
1929
1936
1941
1944
1948
1950
1951
1950
1950
1948
1947
1941
1938
1938
1938
1938
1937
1939
1938
1934
1933
1931
1930
1930
1933
1934
1938
1940
1943
1944
1947
1945
1944
1944
1942
1939
1938
1938
1939
1939
1941
1945
1950
1952
1956
1958
1956
1953
1952
1950
1948
1946
1944
1944
1943
1941
1940
1939
1941
1942
1946
1950
1955
1959
1961
1964
1966
1968
1969
1971
1970
1970
1969
1970
1970
1970
1970
1969
1965
1962
1958
1956
1952
1951
1950
1952
1952
1953
1956
1957
1959
1959
1960
1963
1963
1964
1961
1962
1960
1958
1957
1957
1957
1957
1959
1961
1964
1965
1967
1969
1972
1974
1975
1977
1979
1977
1975
1974
1973
1971
1968
1967
1966
1967
1969
1971
1972
1973
1972
1972
1971
1970
1970
1971
1973
1976
1977
1981
1981
1981
1980
1981
1981
1978
1974
1973
1972
1971
1974
1976
1979
1982
1983
1985
1988
1989
1993
1998
2001
2002
2004
2005
2005
2005
2005
2005
2005
2006
2010
2014
2018
2020
2021
2023
2027
2031
2036
2041
2044
2044
2046
2046
2046
2046
2044
2041
2039
2038
2043
2051
2062
2076
2092
2113
2133
2152
2170
2187
2199
2207
2212
2214
2214
2212
2206
2200
2188
2178
2166
2156
2145
2135
2126
2118
2112
2106
2101
2102
2106
2112
2116
2121
2123
2123
2121
2119
2119
2116
2112
2108
2105
2101
2098
2096
2092
2086
2083
2081
2076
2072
2066
2059
2048
2036
2025
2014
2003
1993
1986
1978
1973
1968
1963
1961
1960
1958
1956
1957
1955
1954
1956
1956
1957
1958
1959
1961
1965
1971
1975
1984
1989
1990
1992
1993
1992
1993
1992
1992
1993
1993
1993
1993
1994
1992
1987
1986
1984
1983
1984
1983
1983
1981
1980
1980
1979
1977
1973
1969
1965
1964
1965
1967
1972
1976
1984
1996
2011
2029
2057
2089
2128
2168
2212
2255
2302
2349
2391
2432
2465
2490
2509
2524
2533
2536
2529
2512
2487
2453
2410
2361
2304
2240
2169
2094
2013
1927
1836
1744
1654
1574
1506
1457
1426
1410
1411
1426
1452
1485
1524
1571
1618
1666
1712
1762
1810
1857
1900
1938
1972
2000
2023
2041
2057
2066
2072
2070
2060
2048
2033
2021
2008
1999
1992
1989
1982
1976
1971
1970
1971
1975
1980
1987
1993
1998
2002
2005
2006
2007
2007
2007
2008
2010
2009
2011
2010
2009
2009
2012
2015
2015
2020
2022
2025
2025
2025
2027
2025
2025
2026
2029
2034
2038
2042
2049
2052
2055
2058
2060
2060
2060
2057
2056
2053
2049
2044
2043
2040
2037
2038
2038
2042
2046
2053
2058
2062
2068
2070
2074
2075
2076
2078
2080
2081
2078
2078
2078
2078
2076
2075
2076
2080
2081
2082
2082
2081
2082
2081
2083
2084
2085
2084
2087
2088
2088
2088
2090
2087
2086
2088
2094
2100
2106
2112
2116
2122
2123
2124
2126
2125
2124
2123
2123
2121
2122
2122
2124
2125
2129
2133
2138
2141
2145
2148
2153
2159
2162
2165
2169
2171
2171
2173
2172
2168
2166
2162
2160
2160
2162
2164
2168
2173
2176
2180
2185
2189
2193
2198
2203
2209
2212
2218
2225
2228
2235
2241
2246
2252
2256
2264
2271
2276
2281
2285
2290
2295
2298
2301
2306
2308
2312
2314
2317
2319
2321
2324
2329
2334
2341
2348
2356
2364
2372
2382
2392
2399
2404
2406
2410
2414
2420
2427
2439
2449
2457
2469
2479
2490
2501
2511
2522
2530
2534
2538
2541
2544
2546
2550
2555
2560
2566
2572
2577
2582
2587
2593
2599
2606
2611
2616
2622
2628
2632
2632
2634
2634
2634
2634
2635
2636
2634
2634
2634
2632
2629
2628
2626
2623
2620
2618
2614
2611
2604
2597
2588
2580
2570
2558
2546
2530
2512
2494
2480
2462
2444
2426
2408
2388
2368
2348
2330
2314
2296
2278
2264
2248
2236
2222
2210
2194
2178
2165
2152
2138
2124
2112
2098
2085
2070
2059
2046
2034
2022
2014
2006
1999
1992
1986
1981
1975
1970
1962
1956
1948
1943
1938
1933
1934
1932
1929
1925
1918
1911
1904
1900
1896
1892
1889
1886
1883
1880
1874
1871
1869
1867
1867
1869
1871
1874
1877
1878
1879
1877
1875
1877
1877
1878
1877
1876
1872
1867
1861
1855
1850
1848
1847
1848
1850
1854
1858
1862
1867
1871
1876
1883
1886
1888
1890
1889
1888
1887
1888
1888
1887
1884
1880
1880
1879
1878
1878
1879
1881
1883
1885
1886
1884
1882
1880
1880
1880
1880
1879
1879
1880
1880
1883
1886
1887
1890
1894
1895
1896
1897
1902
1907
1908
1912
1914
1919
1919
1918
1916
1915
1915
1912
1911
1910
1911
1911
1911
1914
1915
1918
1922
1925
1926
1926
1926
1929
1931
1929
1930
1932
1932
1930
1932
1930
1929
1927
1925
1922
1919
1914
1912
1913
1914
1915
1914
1913
1908
1906
1904
1901
1903
1903
1906
1908
1912
1916
1919
1925
1928
1930
1930
1930
1928
1927
1927
1926
1926
1924
1922
1921
1917
1914
1913
1912
1910
1910
1911
1915
1915
1914
1915
1917
1917
1918
1919
1921
1919
1916
1914
1911
1909
1908
1908
1911
1912
1914
1916
1918
1922
1925
1926
1927
1927
1927
1929
1933
1934
1937
1938
1940
1940
1939
1936
1933
1929
1925
1922
1919
1919
1917
1914
1913
1911
1913
1918
1923
1926
1931
1936
1941
1942
1942
1940
1936
1932
1928
1924
1922
1919
1918
1916
1918
1919
1920
1924
1928
1931
1935
1940
1944
1945
1948
1948
1951
1951
1950
1951
1953
1950
1948
1945
1943
1940
1937
1936
1938
1939
1938
1938
1940
1941
1940
1940
1939
1940
1939
1940
1941
1944
1946
1948
1951
1950
1949
1950
1950
1951
1950
1950
1950
1950
1950
1950
1954
1956
1958
1962
1965
1967
1967
1967
1968
1969
1968
1969
1970
1970
1970
1969
1967
1965
1961
1959
1959
1958
1955
1952
1950
1952
1953
1954
1954
1956
1954
1954
1954
1955
1955
1955
1954
1953
1954
1956
1960
1964
1967
1970
1972
1973
1973
1975
1975
1973
1968
1964
1960
1954
1948
1942
1938
1936
1933
1933
1936
1941
1945
1951
1958
1962
1968
1970
1973
1975
1976
1977
1977
1978
1976
1977
1980
1983
1982
1982
1980
1979
1976
1973
1974
1976
1977
1980
1982
1985
1986
1985
1983
1983
1980
1979
1978
1976
1974
1973
1973
1972
1972
1975
1978
1983
1985
1991
1996
2000
1999
1998
1996
1990
1985
1979
1975
1972
1972
1972
1975
1975
1975
1977
1981
1985
1988
1989
1992
1993
1994
1994
1993
1991
1989
1989
1989
1989
1986
1986
1983
1979
1977
1980
1985
1991
1994
1999
2003
2011
2012
2015
2015
2012
2010
2010
2013
2017
2021
2024
2026
2027
2028
2029
2033
2036
2037
2041
2043
2043
2042
2040
2038
2039
2039
2041
2050
2060
2074
2090
2109
2130
2150
2171
2188
2202
2212
2216
2217
2214
2208
2200
2190
2180
2166
2153
2142
2130
2120
2110
2103
2098
2092
2090
2088
2087
2088
2088
2091
2092
2090
2088
2084
2080
2078
2076
2075
2076
2076
2072
2080
2083
2084
2085
2082
2080
2074
2066
2059
2049
2039
2030
2020
2009
1996
1984
1974
1964
1958
1953
1950
1949
1947
1947
1947
1949
1952
1954
1958
1960
1962
1964
1966
1966
1965
1965
1964
1962
1958
1955
1950
1946
1942
1942
1942
1946
1948
1951
1954
1956
1960
1963
1966
1969
1969
1969
1968
1966
1962
1957
1954
1950
1944
1942
1941
1944
1948
1954
1962
1973
1983
1998
2016
2037
2063
2097
2136
2180
2225
2275
2326
2380
2430
2475
2515
2548
2576
2599
2623
2638
2644
2634
2610
2573
2524
2466
2402
2334
2260
2182
2103
2021
1936
1851
1769
1700
1642
1597
1572
1562
1566
1581
1604
1635
1667
1703
1740
1779
1819
1857
1892
1927
1956
1980
2000
2013
2020
2023
2024
2021
2015
2007
1997
1986
1976
1967
1963
1959
1955
1951
1951
1952
1953
1956
1961
1965
1968
1971
1971
1971
1970
1974
1977
1981
1984
1988
1991
1994
1993
1992
1990
1989
1986
1985
1984
1985
1986
1991
1994
1996
1998
1997
1996
1995
1993
1992
1993
1996
1996
1998
1999
2001
2001
2002
2006
2010
2013
2017
2020
2022
2021
2020
2022
2019
2018
2015
2016
2015
2014
2013
2013
2012
2012
2013
2015
2017
2019
2024
2028
2030
2030
2030
2030
2031
2032
2036
2038
2041
2042
2046
2049
2050
2050
2049
2049
2047
2049
2049
2050
2052
2053
2057
2059
2061
2060
2062
2065
2065
2067
2070
2074
2080
2082
2083
2083
2081
2080
2078
2077
2076
2076
2080
2082
2083
2084
2086
2087
2088
2087
2088
2090
2092
2095
2100
2107
2116
2125
2132
2141
2147
2149
2153
2158
2162
2166
2169
2173
2176
2176
2178
2176
2174
2172
2170
2171
2172
2173
2176
2181
2185
2188
2192
2197
2202
2206
2209
2214
2214
2216
2219
2225
2230
2236
2241
2248
2253
2258
2264
2270
2276
2280
2284
2291
2296
2302
2308
2314
2320
2326
2334
2342
2351
2357
2365
2373
2380
2388
2396
2402
2408
2412
2416
2422
2428
2433
2440
2448
2457
2465
2472
2477
2480
2483
2488
2494
2501
2506
2513
2520
2527
2532
2538
2542
2546
2552
2558
2556
2566
2566
2564
2565
2564
2568
2570
2574
2576
2576
2576
2576
2574
2570
2567
2564
2560
2554
2548
2545
2537
2527
2520
2510
2497
2479
2464
2450
2436
2422
2411
2400
2390
2378
2365
2356
2346
2335
2320
2304
2289
2270
2252
2238
2222
2206
2188
2171
2153
2134
2116
2099
2084
2072
2061
2055
2046
2037
2029
2022
2015
2007
2001
1994
1986
1978
1970
1963
1958
1952
1948
1945
1941
1936
1929
1924
1918
1914
1909
1906
1902
1898
1897
1897
1894
1893
1891
1888
1885
1883
1880
1878
1875
1872
1869
1871
1871
1870
1871
1873
1873
1871
1871
1868
1866
1862
1858
1857
1856
1854
1855
1857
1858
1860
1861
1865
1866
1868
1868
1868
1868
1867
1866
1864
1861
1861
1862
1869
1873
1878
1884
1887
1889
1889
1886
1883
1880
1877
1874
1870
1866
1864
1859
1858
1858
1858
1859
1863
1865
1868
1872
1875
1879
1882
1883
1885
1884
1884
1884
1885
1885
1888
1889
1891
1892
1896
1900
1904
1908
1910
1911
1913
1913
1912
1913
1908
1902
1897
1892
1890
1887
1886
1888
1890
1892
1893
1894
1897
1897
1898
1898
1900
1901
1898
1901
1903
1905
1904
1906
1909
1909
1909
1906
1905
1902
1899
1898
1899
1900
1901
1905
1909
1911
1912
1912
1914
1912
1908
1906
1903
1898
1894
1893
1892
1893
1894
1897
1901
1902
1902
1904
1909
1914
1918
1923
1929
1933
1936
1935
1930
1924
1916
1909
1904
1902
1897
1894
1892
1891
1889
1891
1893
1896
1897
1898
1901
1901
1899
1900
1904
1909
1913
1917
1919
1922
1922
1919
1916
1915
1914
1914
1917
1918
1915
1913
1912
1912
1910
1908
1908
1902
1899
1896
1897
1896
1896
1895
1900
1902
1906
1909
1912
1914
1915
1916
1917
1918
1922
1923
1925
1927
1925
1925
1923
1922
1919
1921
1921
1919
1919
1923
1928
1932
1933
1932
1932
1930
1929
1926
1923
1919
1915
1915
1915
1916
1916
1916
1921
1926
1931
1935
1940
1943
1946
1947
1951
1952
1953
1952
1951
1948
1947
1938
1942
1941
1938
1937
1938
1940
1941
1945
1947
1947
1948
1950
1951
1956
1959
1964
1967
1970
1970
1970
1969
1967
1964
1962
1958
1956
1952
1954
1956
1958
1958
1959
1961
1958
1957
1955
1954
1950
1947
1944
1942
1942
1941
1942
1947
1949
1952
1955
1961
1966
1970
1972
1975
1974
1971
1970
1970
1970
1970
1971
1971
1970
1970
1966
1967
1965
1963
1961
1959
1958
1959
1962
1967
1970
1972
1974
1975
1973
1970
1968
1968
1966
1965
1966
1968
1972
1975
1978
1983
1986
1988
1990
1990
1988
1987
1988
1989
1987
1985
1981
1979
1979
1976
1976
1979
1983
1986
1989
1993
1995
1996
1998
2000
1998
1996
1996
1996
1995
1993
1989
1988
1986
1984
1983
1984
1984
1983
1982
1982
1985
1986
1988
1991
1993
1993
1997
1997
1996
1994
1988
1987
1986
1985
1988
1991
1995
1998
1999
2003
2004
2004
2006
2007
2010
2010
2010
2009
2006
2001
1999
1997
1993
1992
1991
1994
1995
1996
1997
1998
1997
1996
1993
1992
1991
1990
1991
1996
2000
2002
2005
2008
2011
2012
2012
2011
2009
2007
2008
2010
2015
2018
2019
2020
2019
2015
2014
2015
2015
2017
2016
2014
2015
2014
2015
2021
2028
2033
2039
2045
2051
2054
2058
2062
2066
2071
2074
2077
2078
2076
2074
2074
2074
2074
2074
2074
2074
2074
2077
2081
2088
2095
2104
2115
2128
2142
2158
2174
2186
2195
2204
2209
2212
2210
2208
2201
2193
2182
2173
2166
2158
2150
2145
2139
2132
2126
2122
2120
2116
2115
2112
2113
2112
2112
2108
2108
2108
2108
2109
2112
2113
2116
2118
2120
2118
2116
2112
2110
2105
2101
2098
2095
2090
2083
2074
2064
2053
2039
2028
2019
2009
2000
1996
1991
1985
1981
1980
1980
1979
1980
1981
1985
1990
1992
1996
2002
2008
2012
2012
2010
2008
2002
1998
1994
1990
1989
1985
1983
1979
1977
1976
1977
1977
1978
1983
1988
1993
1995
1996
1995
1993
1990
1987
1985
1980
1975
1972
1970
1973
1976
1980
1983
1987
1993
2002
2011
2025
2044
2072
2108
2151
2199
2252
2309
2366
2426
2484
2539
2586
2628
2662
2692
2713
2724
2724
2708
2678
2634
2581
2521
2452
2380
2304
2224
2146
2066
1982
1899
1818
1746
1688
1647
1623
1615
1620
1635
1659
1686
1721
1759
1799
1839
1880
1918
1951
1980
2003
2026
2040
2046
2049
2046
2040
2035
2028
2021
2013
2004
1996
1988
1980
1971
1965
1960
1958
1956
1957
1961
1965
1970
1977
1983
1992
2000
2004
2011
2013
2013
2012
2011
2008
2005
2002
2000
1997
1994
1992
1991
1990
1990
1989
1990
1992
1995
2000
2005
2007
2010
2012
2014
2013
2011
2009
2009
2008
2008
2009
2009
2009
2007
2008
2009
2011
2011
2014
2018
2020
2021
2022
2025
2030
2031
2036
2038
2040
2043
2042
2042
2042
2040
2039
2040
2038
2038
2039
2042
2045
2044
2044
2046
2051
2051
2054
2058
2061
2062
2064
2065
2064
2064
2064
2062
2062
2064
2066
2068
2070
2071
2073
2076
2077
2078
2078
2077
2074
2070
2066
2069
2072
2076
2082
2089
2095
2100
2106
2111
2114
2116
2114
2114
2116
2110
2108
2108
2108
2109
2108
2108
2108
2110
2112
2114
2118
2121
2125
2129
2134
2138
2144
2149
2152
2155
2156
2158
2162
2165
2168
2169
2169
2170
2174
2178
2180
2180
2183
2186
2192
2196
2200
2206
2210
2212
2219
2224
2230
2234
2238
2241
2245
2246
2252
2257
2262
2266
2271
2276
2282
2289
2296
2308
2320
2330
2341
2350
2356
2362
2368
2373
2378
2381
2384
2387
2392
2396
2401
2406
2410
2416
2421
2430
2438
2446
2453
2458
2464
2468
2473
2476
2476
2478
2481
2486
2489
2494
2497
2502
2506
2510
2516
2524
2529
2530
2534
2539
2544
2551
2556
2562
2566
2568
2570
2572
2573
2571
2566
2563
2555
2548
2542
2536
2529
2520
2512
2504
2492
2478
2465
2453
2441
2429
2420
2410
2400
2388
2378
2374
2357
2344
2331
2317
2304
2291
2276
2264
2249
2233
2216
2199
2184
2168
2155
2144
2135
2123
2114
2106
2096
2088
2078
2070
2060
2044
2029
2014
2002
1987
1973
1962
1954
1948
1946
1945
1945
1940
1935
1929
1924
1919
1913
1908
1904
1900
1897
1897
1898
1899
1897
1895
1892
1889
1889
1888
1888
1886
1884
1884
1884
1881
1880
1881
1884
1883
1882
1880
1877
1872
1871
1873
1875
1873
1874
1873
1872
1867
1864
1862
1859
1858
1856
1858
1861
1863
1868
1872
1875
1877
1877
1878
1878
1879
1878
1878
1878
1878
1878
1878
1876
1876
1877
1878
1878
1878
1881
1882
1881
1882
1882
1883
1882
1880
1878
1877
1875
1877
1880
1884
1888
1889
1893
1895
1897
1898
1899
1897
1895
1892
1889
1888
1888
1890
1892
1898
1904
1907
1910
1913
1912
1914
1912
1914
1914
1913
1912
1912
1911
1908
1903
1901
1896
1894
1892
1896
1898
1903
1910
1920
1926
1931
1933
1934
1937
1936
1935
1936
1934
1933
1932
1930
1926
1923
1922
1923
1924
1924
1924
1926
1928
1926
1924
1922
1922
1920
1921
1925
1927
1927
1927
1927
1928
1930
1931
1933
1932
1930
1934
1936
1938
1939
1940
1942
1944
1944
1944
1944
1944
1944
1945
1947
1948
1948
1949
1949
1949
1948
1946
1946
1943
1941
1938
1939
1940
1940
1939
1941
1940
1937
1933
1936
1924
1918
1916
1915
1912
1910
1910
1911
1912
1916
1919
1922
1925
1931
1934
1941
1945
1947
1948
1949
1946
1942
1940
1939
1938
1941
1943
1948
1949
1951
1956
1959
1964
1969
1974
1977
1977
1977
1973
1970
1964
1957
1953
1948
1944
1940
1936
1932
1929
1928
1930
1933
1936
1938
1942
1946
1949
1951
1954
1953
1950
1947
1944
1945
1946
1947
1947
1950
1953
1954
1954
1955
1954
1954
1954
1954
1953
1951
1950
1948
1945
1942
1940
1941
1940
1938
1938
1937
1937
1937
1940
1945
1949
1953
1959
1964
1967
1968
1968
1964
1960
1952
1949
1947
1946
1946
1948
1950
1953
1952
1952
1955
1956
1956
1956
1958
1959
1959
1961
1965
1965
1968
1969
1969
1967
1962
1958
1955
1954
1951
1951
1951
1952
1953
1954
1955
1953
1952
1951
1952
1952
1951
1954
1956
1961
1965
1970
1974
1978
1980
1981
1980
1979
1976
1974
1971
1968
1963
1961
1962
1964
1967
1969
1970
1973
1976
1979
1983
1985
1984
1983
1985
1986
1988
1988
1990
1990
1990
1990
1994
1994
1994
1996
2000
1999
1998
1997
1994
1992
1991
1991
1992
1991
1990
1990
1994
1989
1990
1991
1996
1999
2002
2002
2005
2006
2007
2008
2011
2010
2007
2006
2004
2002
1999
1998
1995
1992
1990
1988
1987
1986
1987
1987
1987
1983
1980
1978
1980
1982
1987
1991
1994
1997
1997
1997
1998
1999
1999
1999
1998
1997
1996
1995
1994
1993
1990
1990
1990
1988
1986
1986
1988
1988
1991
1994
1996
1999
1998
2000
2003
2006
2007
2009
2010
2008
2006
2003
2003
2002
2000
2000
2001
2000
1998
1999
2000
2000
2000
2001
1998
1998
1996
1994
1994
1995
1997
2000
2006
2007
2009
2008
2010
2008
2006
2005
2004
2002
1999
2000
2000
2002
2001
2002
2001
2000
2001
2001
2001
2002
2001
2002
2005
2003
2008
2010
2014
2015
2020
2022
2025
2026
2027
2029
2030
2032
2034
2034
2035
2036
2038
2043
2048
2051
2054
2055
2056
2057
2058
2059
2061
2062
2062
2063
2064
2065
2066
2066
2068
2069
2072
2077
2084
2093
2101
2110
2122
2133
2145
2155
2168
2180
2190
2202
2212
2220
2223
2223
2221
2218
2211
2200
2191
2180
2171
2162
2153
2146
2141
2136
2132
2129
2126
2122
2121
2120
2119
2121
2122
2125
2128
2131
2133
2134
2130
2125
2119
2112
2102
2095
2092
2088
2086
2084
2084
2083
2080
2076
2070
2065
2057
2046
2039
2031
2022
2015
2007
2000
1991
1984
1978
1974
1968
1964
1961
1961
1962
1965
1973
1981
1990
1996
1998
1999
1999
1999
1997
1995
1992
1990
1991
1990
1992
1993
1993
1991
1990
1990
1989
1989
1988
1986
1985
1985
1986
1987
1988
1990
1991
1992
1994
1992
1988
1983
1981
1981
1982
1986
1995
2007
2020
2037
2062
2093
2132
2177
2228
2283
2340
2396
2448
2490
2526
2552
2572
2588
2598
2600
2595
2576
2540
2494
2441
2380
2312
2244
2176
2103
2030
1960
1891
1818
1744
1676
1619
1576
1547
1534
1537
1550
1570
1596
1627
1661
1699
1741
1786
1831
1873
1912
1947
1976
1999
2015
2027
2033
2036
2036
2032
2025
2015
2005
1994
1983
1975
1969
1965
1962
1960
1960
1962
1963
1967
1972
1977
1981
1980
1981
1984
1986
1988
1987
1989
1990
1992
1991
1992
1995
1995
1997
1999
1999
2001
2001
2002
2004
2006
2007
2009
2011
2012
2015
2017
2018
2020
2021
2024
2026
2026
2026
2029
2031
2032
2034
2037
2037
2038
2038
2035
2035
2034
2034
2035
2036
2037
2036
2035
2033
2035
2037
2039
2036
2046
2053
2058
2060
2060
2060
2060
2058
2057
2054
2054
2055
2056
2057
2058
2059
2059
2059
2061
2062
2061
2062
2064
2066
2068
2068
2068
2070
2070
2072
2074
2078
2082
2086
2091
2092
2092
2092
2093
2092
2089
2088
2087
2086
2084
2083
2087
2091
2096
2102
2109
2113
2118
2122
2126
2128
2128
2128
2131
2130
2128
2126
2126
2128
2128
2129
2132
2134
2138
2141
2146
2148
2150
2151
2151
2156
2160
2164
2168
2174
2179
2182
2186
2188
2189
2191
2193
2196
2200
2204
2209
2210
2213
2215
2221
2228
2233
2238
2243
2246
2250
2256
2261
2268
2276
2278
2288
2293
2297
2301
2304
2309
2313
2318
2327
2334
2339
2344
2350
2356
2359
2362
2369
2374
2378
2384
2390
2398
2404
2410
2417
2422
2429
2434
2443
2447
2454
2458
2465
2471
2478
2486
2498
2506
2516
2524
2530
2537
2540
2544
2547
2548
2549
2550
2555
2560
2563
2566
2568
2570
2568
2566
2565
2563
2558
2555
2553
2552
2548
2546
2546
2544
2540
2535
2529
2520
2510
2500
2490
2478
2469
2461
2456
2450
2442
2435
2426
2418
2408
2399
2390
2378
2362
2346
2328
2308
2289
2273
2258
2242
2226
2212
2200
2186
2172
2158
2147
2137
2124
2113
2102
2092
2082
2072
2063
2051
2039
2030
2021
2012
2004
1996
1987
1978
1968
1960
1952
1946
1939
1934
1931
1928
1926
1924
1924
1923
1922
1919
1918
1914
1908
1905
1900
1896
1890
1884
1881
1878
1875
1871
1869
1868
1868
1869
1870
1871
1870
1869
1869
1868
1868
1866
1866
1865
1862
1861
1862
1862
1862
1864
1867
1871
1874
1880
1885
1889
1892
1892
1895
1895
1894
1892
1893
1894
1894
1892
1892
1891
1889
1886
1886
1884
1883
1884
1886
1888
1890
1889
1889
1890
1890
1888
1890
1892
1894
1897
1899
1903
1904
1905
1908
1910
1908
1908
1908
1908
1906
1904
1905
1905
1904
1905
1907
1907
1907
1908
1912
1915
1916
1914
1915
1912
1909
1908
1908
1907
1908
1910
1915
1915
1915
1915
1918
1923
1924
1927
1932
1935
1938
1939
1943
1944
1943
1942
1942
1940
1938
1934
1932
1928
1924
1920
1918
1919
1917
1918
1923
1927
1930
1930
1930
1929
1927
1925
1924
1924
1922
1919
1919
1918
1917
1918
1918
1921
1924
1926
1928
1928
1927
1927
1928
1929
1934
1934
1937
1940
1941
1941
1941
1940
1939
1937
1935
1933
1930
1928
1929
1926
1925
1926
1928
1929
1931
1932
1934
1938
1939
1940
1939
1939
1939
1939
1939
1938
1938
1937
1938
1937
1935
1935
1936
1936
1938
1940
1943
1944
1943
1943
1943
1941
1938
1939
1937
1938
1938
1941
1941
1944
1946
1946
1946
1943
1942
1942
1939
1941
1940
1937
1935
1934
1932
1933
1932
1934
1934
1937
1941
1944
1944
1944
1945
1944
1942
1942
1945
1945
1945
1947
1949
1952
1953
1956
1961
1960
1960
1959
1959
1959
1954
1952
1949
1948
1946
1946
1947
1946
1946
1944
1941
1938
1934
1932
1931
1932
1934
1936
1940
1947
1950
1956
1958
1962
1962
1962
1962
1961
1959
1959
1960
1961
1960
1960
1958
1957
1955
1951
1952
1952
1952
1954
1957
1958
1958
1958
1958
1958
1954
1951
1948
1946
1946
1948
1951
1953
1954
1956
1956
1957
1960
1963
1969
1973
1975
1977
1980
1985
1985
1986
1988
1988
1988
1987
1985
1981
1977
1973
1970
1966
1963
1959
1957
1956
1954
1957
1958
1962
1965
1968
1973
1976
1979
1983
1992
1998
2004
2006
2007
2007
2006
2003
2002
1999
1996
1993
1991
1990
1985
1984
1982
1981
1980
1978
1978
1979
1980
1980
1982
1983
1986
1991
1995
2001
2005
2008
2012
2013
2014
2014
2015
2014
2011
2010
2006
2003
1997
1992
1988
1983
1982
1980
1981
1982
1982
1984
1986
1987
1987
1988
1990
1992
1992
1993
1994
1992
1992
1990
1991
1992
1994
1997
1999
2003
2006
2007
2009
2009
2009
2008
2009
2008
2006
2004
2003
2003
2002
2000
1999
2000
2004
2005
2006
2009
2006
2005
2003
2001
1997
1998
1996
1995
1994
1994
1994
1995
1995
1997
2001
2003
2004
2006
2005
2006
2006
2008
2012
2015
2017
2020
2022
2021
2020
2018
2018
2019
2021
2021
2023
2022
2019
2017
2014
2013
2011
2012
2015
2019
2023
2025
2027
2026
2024
2018
2013
2008
2002
1996
1992
1990
1992
1996
2002
2008
2015
2021
2025
2026
2026
2025
2022
2019
2017
2015
2015
2015
2015
2014
2015
2017
2018
2020
2023
2027
2029
2031
2031
2031
2031
2031
2030
2028
2027
2025
2026
2027
2027
2026
2026
2027
2027
2029
2030
2034
2036
2038
2041
2044
2050
2053
2052
2052
2052
2051
2052
2054
2054
2060
2065
2071
2077
2085
2090
2096
2099
2100
2103
2105
2105
2106
2107
2108
2110
2112
2120
2128
2140
2152
2166
2182
2196
2208
2222
2230
2239
2246
2248
2247
2242
2238
2230
2222
2212
2204
2196
2186
2174
2165
2156
2149
2145
2144
2146
2146
2146
2149
2150
2150
2152
2152
2154
2157
2156
2156
2153
2150
2146
2140
2134
2127
2120
2114
2114
2112
2108
2100
2094
2086
2076
2068
2057
2046
2036
2024
2016
2012
2005
2000
1998
1997
1992
1989
1988
1988
1990
1993
1996
2000
2002
2004
2009
2010
2010
2010
2011
2012
2012
2012
2013
2013
2013
2013
2014
2014
2014
2014
2015
2015
2015
2013
2012
2012
2010
2007
2005
2002
1998
1996
1994
1992
1991
1992
1991
1991
1991
1993
2000
2008
2015
2026
2038
2052
2066
2085
2108
2138
2170
2208
2250
2296
2344
2395
2446
2492
2529
2560
2584
2603
2612
2610
2596
2567
2524
2468
2407
2339
2269
2200
2131
2062
1992
1926
1861
1791
1723
1657
1600
1555
1523
1508
1503
1507
1518
1535
1560
1588
1624
1664
1710
1755
1800
1845
1889
1929
1964
1992
2014
2026
2031
2032
2029
2020
2009
1997
1985
1975
1965
1961
1961
1964
1966
1967
1971
1975
1978
1983
1989
1995
2000
2006
2010
2011
2012
2014
2011
2008
2005
2005
2007
2009
2012
2013
2018
2021
2023
2025
2026
2026
2025
2027
2030
2033
2034
2036
2038
2039
2040
2043
2045
2046
2050
2049
2049
2046
2044
2044
2043
2044
2042
2042
2043
2041
2039
2037
2036
2033
2033
2034
2035
2037
2039
2043
2049
2052
2053
2056
2058
2058
2058
2060
2063
2064
2063
2064
2064
2064
2064
2065
2066
2068
2070
2072
2075
2077
2077
2080
2081
2081
2080
2080
2080
2080
2080
2081
2082
2082
2082
2082
2083
2085
2088
2092
2096
2101
2102
2106
2112
2115
2118
2121
2123
2123
2122
2120
2118
2117
2116
2116
2115
2115
2117
2120
2125
2129
2131
2134
2136
2137
2140
2141
2144
2144
2145
2148
2152
2155
2158
2161
2166
2169
2172
2176
2179
2183
2185
2188
2192
2195
2200
2206
2214
2220
2222
2226
2229
2229
2230
2229
2229
2230
2229
2232
2235
2241
2247
2252
2259
2270
2280
2290
2298
2308
2313
2320
2326
2332
2336
2343
2345
2348
2351
2354
2357
2359
2364
2372
2380
2390
2400
2410
2421
2431
2439
2445
2452
2456
2460
2464
2466
2470
2474
2480
2488
2497
2506
2516
2524
2530
2536
2540
2544
2548
2549
2552
2552
2553
2556
2558
2564
2569
2574
2579
2584
2589
2593
2598
2605
2608
2611
2612
2614
2613
2610
2605
2601
2598
2594
2590
2586
2582
2577
2571
2564
2555
2544
2534
2521
2508
2495
2480
2469
2454
2440
2427
2414
2402
2389
2376
2362
2347
2328
2310
2291
2272
2253
2236
2221
2205
2192
2180
2167
2156
2146
2134
2122
2111
2096
2085
2073
2062
2050
2038
2029
2019
2010
1999
1992
1986
1980
1976
1972
1965
1957
1950
1945
1938
1931
1924
1919
1914
1908
1906
1906
1907
1906
1907
1907
1903
1899
1895
1892
1888
1886
1883
1880
1875
1872
1869
1866
1864
1864
1864
1866
1869
1871
1872
1876
1875
1875
1876
1874
1875
1874
1875
1878
1883
1886
1888
1892
1890
1889
1886
1883
1880
1879
1874
1872
1871
1870
1866
1864
1861
1859
1855
1857
1858
1859
1862
1867
1874
1879
1885
1893
1897
1901
1901
1903
1904
1903
1903
1904
1900
1896
1894
1891
1888
1887
1885
1885
1882
1880
1879
1882
1887
1889
1892
1896
1900
1905
1909
1913
1916
1916
1918
1917
1915
1914
1913
1912
1913
1916
1918
1923
1925
1926
1926
1927
1927
1926
1926
1927
1928
1927
1929
1931
1930
1930
1930
1932
1931
1930
1928
1929
1927
1924
1924
1923
1922
1923
1923
1924
1927
1928
1931
1934
1937
1936
1935
1934
1934
1934
1934
1939
1941
1944
1947
1948
1950
1950
1948
1948
1945
1943
1944
1946
1948
1949
1951
1951
1949
1946
1945
1946
1947
1946
1947
1948
1950
1948
1950
1951
1951
1948
1944
1942
1938
1935
1934
1934
1934
1935
1934
1938
1939
1940
1942
1943
1946
1947
1949
1948
1950
1946
1946
1944
1941
1938
1936
1936
1936
1934
1933
1935
1935
1935
1936
1938
1938
1939
1939
1939
1938
1935
1932
1928
1926
1926
1922
1923
1924
1924
1928
1931
1934
1940
1943
1946
1950
1950
1948
1945
1940
1937
1932
1931
1930
1931
1931
1933
1935
1938
1942
1944
1944
1942
1941
1939
1937
1936
1934
1934
1936
1936
1936
1937
1940
1942
1944
1947
1950
1956
1960
1964
1964
1961
1959
1958
1957
1955
1954
1957
1954
1954
1953
1952
1949
1947
1945
1945
1943
1941
1941
1945
1947
1950
1955
1958
1959
1958
1959
1958
1957
1954
1952
1951
1949
1947
1946
1946
1946
1944
1945
1947
1949
1950
1953
1958
1960
1963
1965
1966
1966
1964
1963
1961
1959
1957
1957
1958
1959
1960
1963
1964
1965
1965
1964
1965
1965
1964
1964
1964
1963
1964
1965
1967
1969
1970
1970
1971
1970
1970
1972
1976
1978
1978
1981
1983
1984
1988
1990
1993
1994
1992
1990
1988
1985
1983
1984
1986
1987
1988
1990
1990
1989
1985
1981
1977
1973
1970
1967
1967
1967
1966
1967
1967
1967
1966
1967
1968
1968
1969
1971
1973
1976
1979
1981
1986
1987
1988
1990
1992
1991
1988
1986
1984
1982
1980
1979
1979
1980
1980
1981
1983
1984
1983
1985
1988
1989
1990
1989
1989
1986
1985
1983
1983
1984
1986
1988
1988
1989
1987
1986
1986
1985
1982
1982
1982
1984
1987
1992
1997
1999
2000
2001
2001
2000
1998
1994
1991
1985
1979
1974
1970
1969
1970
1973
1979
1985
1990
1995
1999
2002
2000
2000
1999
1998
1998
1997
1999
1999
1999
2000
2000
1999
1997
1995
1993
1990
1988
1988
1990
1991
1994
1996
1998
1998
1998
1998
2000
2000
1999
2001
2004
2005
2005
2005
2006
2006
2005
2004
2004
2003
2003
2003
2003
2000
1997
1997
1996
1998
1999
2001
2004
2006
2008
2008
2009
2008
2006
2007
2008
2008
2007
2006
2006
2006
2004
2004
2004
2002
2000
2000
2001
2002
2000
1998
1998
1999
1997
1999
2004
2008
2012
2014
2017
2018
2016
2016
2015
2015
2014
2012
2009
2008
2008
2006
2009
2012
2015
2020
2023
2024
2026
2027
2030
2033
2035
2038
2043
2046
2048
2053
2057
2060
2064
2068
2073
2076
2076
2078
2079
2080
2078
2078
2078
2077
2078
2080
2084
2089
2094
2103
2114
2126
2140
2157
2176
2193
2210
2225
2236
2244
2247
2249
2247
2243
2236
2228
2217
2206
2192
2182
2171
2162
2152
2142
2137
2131
2125
2122
2123
2122
2123
2124
2128
2129
2130
2133
2134
2134
2132
2130
2128
2124
2119
2116
2112
2110
2105
2105
2105
2102
2098
2092
2085
2076
2066
2054
2044
2031
2018
2004
1993
1983
1974
1970
1968
1966
1967
1967
1969
1970
1972
1974
1979
1983
1983
1983
1983
1982
1981
1981
1980
1983
1981
1981
1982
1984
1988
1990
1992
1993
1991
1990
1988
1986
1982
1981
1981
1979
1977
1974
1972
1971
1968
1967
1965
1964
1966
1968
1971
1973
1976
1981
1989
1999
2009
2022
2037
2054
2077
2107
2144
2185
2229
2274
2322
2370
2413
2454
2484
2506
2522
2533
2538
2537
2522
2493
2450
2397
2333
2264
2193
2121
2050
1977
1905
1832
1755
1677
1597
1523
1456
1402
1365
1346
1344
1355
1375
1406
1443
1485
1533
1580
1631
1681
1730
1777
1822
1864
1901
1931
1954
1968
1981
1987
1992
1992
1992
1988
1981
1974
1968
1961
1956
1954
1954
1954
1956
1957
1962
1967
1969
1974
1980
1985
1989
1993
1996
2001
2001
2001
2003
2004
2004
2006
2006
2006
2004
2002
2002
1997
1993
1992
1993
1996
1999
2006
2013
2019
2020
2027
2030
2036
2039
2041
2043
2042
2042
2041
2041
2041
2042
2043
2042
2041
2039
2035
2035
2034
2036
2035
2036
2039
2042
2045
2051
2054
2059
2060
2065
2066
2070
2072
2078
2080
2081
2082
2082
2082
2080
2076
2074
2073
2071
2072
2072
2072
2074
2076
2078
2082
2086
2090
2094
2098
2102
2105
2108
2111
2110
2109
2108
2107
2104
2102
2100
2100
2098
2098
2098
2098
2099
2100
2103
2105
2108
2108
2114
2118
2122
2126
2128
2131
2134
2136
2137
2138
2138
2140
2142
2145
2145
2146
2148
2154
2147
2144
2141
2138
2136
2134
2135
2136
2139
2141
2148
2155
2166
2177
2188
2194
2200
2204
2208
2211
2212
2214
2217
2221
2224
2229
2234
2236
2239
2241
2247
2252
2261
2268
2277
2284
2289
2293
2298
2304
2308
2312
2318
2320
2320
2324
2330
2334
2340
2346
2351
2360
2368
2378
2390
2400
2411
2420
2428
2435
2437
2436
2439
2441
2444
2451
2460
2472
2481
2490
2499
2507
2513
2520
2527
2532
2538
2541
2547
2552
2556
2558
2563
2566
2569
2572
2577
2581
2587
2592
2600
2606
2610
2612
2614
2614
2612
2612
